# progression for http://henke.lbl.gov/optical_constants/atten2.html
# 100eV-500eV always in 500 steps, 500-1000eV, 1000-2000, 2000-4000, 4000-8000, 8000-16000, 16000-30000
# C Density=3.51, Angle=90.deg
# Photon Energy (eV), Atten Length (microns)
   100.000  0.116832
   100.322  0.117633
   100.646  0.118440
   100.970  0.119252
   101.296  0.120071
   101.622  0.120894
   101.950  0.121724
   102.279  0.122559
   102.609  0.123399
   102.939  0.124246
   103.271  0.125098
   103.604  0.125956
   103.938  0.126820
   104.273  0.127690
   104.610  0.128566
   104.947  0.129448
   105.285  0.130336
   105.625  0.131230
   105.965  0.132130
   106.307  0.133036
   106.649  0.133949
   106.993  0.134868
   107.338  0.135793
   107.684  0.136724
   108.032  0.137662
   108.380  0.138607
   108.729  0.139557
   109.080  0.140515
   109.431  0.141479
   109.784  0.142449
   110.138  0.143427
   110.493  0.144410
   110.850  0.145401
   111.207  0.146399
   111.566  0.147403
   111.925  0.148414
   112.286  0.149432
   112.648  0.150457
   113.011  0.151489
   113.376  0.152529
   113.741  0.153575
   114.108  0.154628
   114.476  0.155689
   114.845  0.156757
   115.215  0.157832
   115.587  0.158915
   115.959  0.160005
   116.333  0.161102
   116.708  0.162207
   117.084  0.163320
   117.462  0.164440
   117.841  0.165568
   118.221  0.166704
   118.602  0.167848
   118.984  0.168999
   119.368  0.170158
   119.753  0.171326
   120.139  0.172501
   120.526  0.173684
   120.915  0.174876
   121.304  0.176075
   121.695  0.177283
   122.088  0.178499
   122.481  0.179724
   122.876  0.180956
   123.272  0.182198
   123.670  0.183448
   124.069  0.184706
   124.469  0.185973
   124.870  0.187248
   125.273  0.188533
   125.676  0.189826
   126.082  0.191128
   126.488  0.192439
   126.896  0.193759
   127.305  0.195089
   127.715  0.196428
   128.127  0.197775
   128.540  0.199132
   128.955  0.200498
   129.370  0.201873
   129.788  0.203258
   130.206  0.204652
   130.626  0.206055
   131.047  0.207469
   131.469  0.208892
   131.893  0.210324
   132.319  0.211767
   132.745  0.213306
   133.173  0.214876
   133.603  0.216457
   134.033  0.218050
   134.465  0.219655
   134.899  0.221272
   135.334  0.222900
   135.770  0.224540
   136.208  0.226193
   136.647  0.227858
   137.088  0.229535
   137.530  0.231224
   137.973  0.232926
   138.418  0.234640
   138.864  0.236367
   139.312  0.238107
   139.761  0.239859
   140.212  0.241625
   140.664  0.243403
   141.117  0.245194
   141.572  0.246999
   142.028  0.248816
   142.486  0.250647
   142.946  0.252491
   143.407  0.254349
   143.869  0.256221
   144.333  0.258107
   144.798  0.260007
   145.265  0.261921
   145.733  0.263848
   146.203  0.265790
   146.675  0.267746
   147.147  0.269717
   147.622  0.271702
   148.098  0.273701
   148.575  0.275715
   149.054  0.277744
   149.535  0.279788
   150.017  0.281847
   150.501  0.283922
   150.986  0.286011
   151.473  0.288117
   151.961  0.290238
   152.451  0.292374
   152.942  0.294527
   153.436  0.296694
   153.930  0.298877
   154.427  0.301076
   154.924  0.303292
   155.424  0.305523
   155.925  0.307772
   156.428  0.310037
   156.932  0.312319
   157.438  0.314617
   157.946  0.316933
   158.455  0.319265
   158.966  0.321616
   159.478  0.323983
   159.992  0.326368
   160.508  0.328770
   161.026  0.331190
   161.545  0.333627
   162.066  0.336083
   162.588  0.338556
   163.112  0.341048
   163.638  0.343557
   164.166  0.346085
   164.695  0.348632
   165.226  0.351197
   165.759  0.353781
   166.293  0.356385
   166.829  0.359008
   167.367  0.361651
   167.907  0.364313
   168.448  0.366994
   168.991  0.369695
   169.536  0.372416
   170.083  0.375157
   170.631  0.377918
   171.181  0.380699
   171.733  0.383501
   172.287  0.386323
   172.842  0.389166
   173.399  0.392030
   173.959  0.394915
   174.519  0.397821
   175.082  0.400750
   175.646  0.403699
   176.213  0.406671
   176.781  0.409664
   177.351  0.412679
   177.923  0.415716
   178.496  0.418775
   179.072  0.421857
   179.649  0.424962
   180.228  0.428089
   180.809  0.431239
   181.392  0.434413
   181.977  0.437609
   182.564  0.440830
   183.152  0.444074
   183.743  0.447343
   184.335  0.450636
   184.930  0.453953
   185.526  0.457390
   186.124  0.461447
   186.724  0.465539
   187.326  0.469667
   187.930  0.473832
   188.536  0.478037
   189.144  0.482291
   189.754  0.486584
   190.365  0.490914
   190.979  0.495284
   191.595  0.499692
   192.213  0.504138
   192.832  0.508623
   193.454  0.513149
   194.078  0.517715
   194.703  0.522321
   195.331  0.526969
   195.961  0.531658
   196.593  0.536390
   197.227  0.541163
   197.862  0.545979
   198.500  0.550837
   199.140  0.555740
   199.782  0.560685
   200.426  0.565675
   201.073  0.570709
   201.721  0.575788
   202.371  0.580912
   203.024  0.586081
   203.678  0.591297
   204.335  0.596559
   204.994  0.601866
   205.655  0.607222
   206.318  0.612624
   206.983  0.618075
   207.650  0.623575
   208.320  0.629125
   208.991  0.634725
   209.665  0.640374
   210.341  0.646074
   211.019  0.651823
   211.700  0.657624
   212.382  0.663475
   213.067  0.669378
   213.754  0.675334
   214.443  0.681344
   215.134  0.687407
   215.828  0.693525
   216.524  0.699697
   217.222  0.705924
   217.922  0.712172
   218.625  0.718394
   219.330  0.724671
   220.037  0.731002
   220.746  0.737389
   221.458  0.743752
   222.172  0.749995
   222.888  0.756290
   223.607  0.762638
   224.328  0.769039
   225.051  0.775494
   225.777  0.782004
   226.504  0.788568
   227.235  0.795187
   227.967  0.801862
   228.702  0.808593
   229.440  0.815381
   230.179  0.822225
   230.922  0.829128
   231.666  0.836088
   232.413  0.843106
   233.162  0.850183
   233.914  0.857319
   234.668  0.864516
   235.425  0.871772
   236.184  0.879091
   236.945  0.886470
   237.709  0.893912
   238.476  0.901416
   239.244  0.908983
   240.016  0.916613
   240.790  0.924306
   241.566  0.932064
   242.345  0.939887
   243.126  0.947775
   243.910  0.955928
   244.696  0.964447
   245.485  0.973043
   246.277  0.981714
   247.071  0.990463
   247.867  1.00009
   248.666  1.01095
   249.468  1.02193
   250.272  1.03303
   251.079  1.04424
   251.889  1.05558
   252.701  1.06704
   253.516  1.07862
   254.333  1.09033
   255.153  1.10217
   255.976  1.11414
   256.801  1.12623
   257.629  1.13846
   258.459  1.15082
   259.293  1.16332
   260.129  1.17595
   260.967  1.18872
   261.809  1.20162
   262.653  1.21467
   263.500  1.22786
   264.349  1.24119
   265.201  1.25466
   266.056  1.26828
   266.914  1.28205
   267.775  1.29597
   268.638  1.31004
   269.504  1.32426
   270.373  1.33864
   271.245  1.35318
   272.119  1.36787
   272.997  1.38272
   273.877  1.39773
   274.760  1.41291
   275.646  1.42825
   276.534  1.44376
   277.426  1.45943
   278.320  1.47528
   279.218  1.49129
   280.118  1.50748
   281.021  1.52385
   281.927  1.54039
   282.836  1.55712
   283.748  1.57403
   284.663  5.534906E-02
   285.580  5.574594E-02
   286.501  5.614563E-02
   287.425  5.654821E-02
   288.352  5.695366E-02
   289.281  5.736205E-02
   290.214  5.777332E-02
   291.150  5.818755E-02
   292.088  5.860480E-02
   293.030  5.902502E-02
   293.975  5.944825E-02
   294.922  5.987450E-02
   295.873  6.030384E-02
   296.827  6.073622E-02
   297.784  6.117174E-02
   298.744  6.161033E-02
   299.707  6.205211E-02
   300.674  6.249706E-02
   301.643  6.294527E-02
   302.616  6.339666E-02
   303.591  6.385131E-02
   304.570  6.430919E-02
   305.552  6.477031E-02
   306.537  6.523464E-02
   307.525  6.570233E-02
   308.517  6.617333E-02
   309.512  6.664773E-02
   310.509  6.712562E-02
   311.511  6.760693E-02
   312.515  6.809174E-02
   313.522  6.857996E-02
   314.533  6.907175E-02
   315.547  6.956702E-02
   316.565  7.006592E-02
   317.585  7.056833E-02
   318.609  7.107440E-02
   319.636  7.158405E-02
   320.667  7.209739E-02
   321.701  7.261436E-02
   322.738  7.313509E-02
   323.779  7.365949E-02
   324.822  7.418771E-02
   325.870  7.471958E-02
   326.920  7.525529E-02
   327.974  7.579479E-02
   329.032  7.633816E-02
   330.093  7.688548E-02
   331.157  7.743675E-02
   332.224  7.799206E-02
   333.296  7.855130E-02
   334.370  7.911460E-02
   335.448  7.968190E-02
   336.530  8.025334E-02
   337.615  8.082882E-02
   338.703  8.140849E-02
   339.795  8.199226E-02
   340.891  8.258028E-02
   341.990  8.317238E-02
   343.092  8.376870E-02
   344.198  8.436932E-02
   345.308  8.497422E-02
   346.421  8.558351E-02
   347.538  8.619718E-02
   348.659  8.681519E-02
   349.783  8.743764E-02
   350.911  8.806460E-02
   352.042  8.869600E-02
   353.177  8.933201E-02
   354.316  8.997252E-02
   355.458  9.061767E-02
   356.604  9.126744E-02
   357.754  9.192187E-02
   358.907  9.258094E-02
   360.064  9.324481E-02
   361.225  9.391339E-02
   362.390  9.458680E-02
   363.558  9.526499E-02
   364.730  9.594808E-02
   365.906  9.663612E-02
   367.086  9.732906E-02
   368.269  9.802701E-02
   369.457  9.872991E-02
   370.648  9.943788E-02
   371.843  0.100151
   373.042  0.100869
   374.244  0.101592
   375.451  0.102321
   376.662  0.103097
   377.876  0.103890
   379.094  0.104688
   380.316  0.105493
   381.543  0.106303
   382.773  0.107149
   384.007  0.108006
   385.245  0.108871
   386.487  0.109743
   387.733  0.110622
   388.983  0.111507
   390.237  0.112400
   391.495  0.113300
   392.758  0.114207
   394.024  0.115122
   395.294  0.116043
   396.569  0.116972
   397.847  0.117909
   399.130  0.118853
   400.417  0.119804
   401.708  0.120764
   403.003  0.121731
   404.302  0.122705
   405.606  0.123688
   406.913  0.124678
   408.225  0.125676
   409.541  0.126683
   410.862  0.127697
   412.186  0.128720
   413.515  0.129750
   414.848  0.130789
   416.186  0.131836
   417.528  0.132892
   418.874  0.133956
   420.224  0.135028
   421.579  0.136109
   422.938  0.137199
   424.302  0.138298
   425.670  0.139405
   427.042  0.140521
   428.419  0.141646
   429.800  0.142781
   431.186  0.143924
   432.576  0.145076
   433.971  0.146238
   435.370  0.147409
   436.774  0.148589
   438.182  0.149779
   439.595  0.150978
   441.012  0.152187
   442.434  0.153405
   443.860  0.154633
   445.291  0.155872
   446.727  0.157120
   448.167  0.158378
   449.612  0.159646
   451.062  0.160924
   452.516  0.162213
   453.975  0.163511
   455.438  0.164821
   456.907  0.166140
   458.380  0.167470
   459.858  0.168811
   461.340  0.170163
   462.828  0.171525
   464.320  0.172898
   465.817  0.174283
   467.319  0.175678
   468.825  0.177085
   470.337  0.178503
   471.853  0.179932
   473.375  0.181372
   474.901  0.182824
   476.432  0.184288
   477.968  0.185764
   479.509  0.187253
   481.055  0.188753
   482.606  0.190266
   484.162  0.191791
   485.723  0.193330
   487.289  0.194910
   488.860  0.196502
   490.436  0.198108
   492.017  0.199726
   493.603  0.201358
   495.195  0.203003
   496.791  0.204662
   498.393  0.206334
   500.000  0.208020
   500.694  0.208750
   501.388  0.209483
   502.084  0.210218
   502.780  0.210956
   503.478  0.211697
   504.176  0.212440
   504.876  0.213186
   505.576  0.213934
   506.277  0.214685
   506.980  0.215439
   507.683  0.216195
   508.387  0.216954
   509.093  0.217716
   509.799  0.218480
   510.506  0.219247
   511.214  0.220017
   511.923  0.220789
   512.634  0.221564
   513.345  0.222342
   514.057  0.223123
   514.770  0.223906
   515.484  0.224692
   516.199  0.225481
   516.915  0.226272
   517.632  0.227067
   518.351  0.227864
   519.070  0.228664
   519.790  0.229466
   520.511  0.230272
   521.233  0.231081
   521.956  0.231892
   522.680  0.232706
   523.405  0.233523
   524.131  0.234343
   524.858  0.235165
   525.586  0.235991
   526.316  0.236820
   527.046  0.237651
   527.777  0.238485
   528.509  0.239323
   529.242  0.240163
   529.976  0.241006
   530.712  0.241852
   531.448  0.242701
   532.185  0.243553
   532.923  0.244408
   533.663  0.245266
   534.403  0.246128
   535.144  0.246992
   535.887  0.247859
   536.630  0.248729
   537.375  0.249602
   538.120  0.250478
   538.867  0.251358
   539.614  0.252240
   540.363  0.253126
   541.112  0.254014
   541.863  0.254906
   542.615  0.255801
   543.367  0.256699
   544.121  0.257600
   544.876  0.258504
   545.632  0.259412
   546.389  0.260323
   547.147  0.261237
   547.906  0.262154
   548.666  0.263074
   549.427  0.263998
   550.189  0.264925
   550.953  0.265855
   551.717  0.266788
   552.482  0.267724
   553.249  0.268664
   554.016  0.269608
   554.785  0.270554
   555.554  0.271504
   556.325  0.272457
   557.097  0.273413
   557.870  0.274373
   558.644  0.275336
   559.419  0.276303
   560.195  0.277273
   560.972  0.278246
   561.750  0.279223
   562.529  0.280204
   563.310  0.281188
   564.091  0.282175
   564.874  0.283166
   565.657  0.284160
   566.442  0.285158
   567.228  0.286159
   568.015  0.287164
   568.803  0.288172
   569.592  0.289184
   570.382  0.290199
   571.173  0.291218
   571.966  0.292240
   572.759  0.293266
   573.554  0.294296
   574.349  0.295329
   575.146  0.296365
   575.944  0.297406
   576.743  0.298450
   577.543  0.299497
   578.344  0.300549
   579.146  0.301604
   579.950  0.302663
   580.754  0.303725
   581.560  0.304791
   582.367  0.305861
   583.175  0.306935
   583.984  0.308012
   584.794  0.309093
   585.605  0.310178
   586.417  0.311267
   587.231  0.312360
   588.046  0.313456
   588.861  0.314557
   589.678  0.315661
   590.496  0.316769
   591.315  0.317881
   592.136  0.318997
   592.957  0.320117
   593.780  0.321241
   594.604  0.322369
   595.428  0.323501
   596.254  0.324636
   597.082  0.325776
   597.910  0.326920
   598.739  0.328068
   599.570  0.329219
   600.402  0.330375
   601.235  0.331535
   602.069  0.332699
   602.904  0.333867
   603.740  0.335040
   604.578  0.336216
   605.417  0.337396
   606.256  0.338581
   607.097  0.339770
   607.940  0.340962
   608.783  0.342159
   609.628  0.343361
   610.473  0.344566
   611.320  0.345775
   612.168  0.346989
   613.017  0.348207
   613.868  0.349429
   614.719  0.350656
   615.572  0.351887
   616.426  0.353122
   617.281  0.354362
   618.138  0.355606
   618.995  0.356854
   619.854  0.358107
   620.714  0.359365
   621.575  0.360626
   622.437  0.361893
   623.301  0.363163
   624.165  0.364438
   625.031  0.365718
   625.898  0.367002
   626.767  0.368290
   627.636  0.369583
   628.507  0.370881
   629.379  0.372183
   630.252  0.373489
   631.126  0.374800
   632.002  0.376116
   632.878  0.377436
   633.756  0.378761
   634.635  0.380091
   635.516  0.381425
   636.397  0.382764
   637.280  0.384108
   638.164  0.385456
   639.050  0.386810
   639.936  0.388168
   640.824  0.389531
   641.713  0.390898
   642.603  0.392271
   643.495  0.393648
   644.387  0.395030
   645.281  0.396417
   646.176  0.397809
   647.073  0.399205
   647.970  0.400607
   648.869  0.402013
   649.770  0.403425
   650.671  0.404841
   651.574  0.406262
   652.477  0.407688
   653.383  0.409119
   654.289  0.410555
   655.197  0.411996
   656.106  0.413442
   657.016  0.414894
   657.927  0.416350
   658.840  0.417812
   659.754  0.419279
   660.669  0.420751
   661.586  0.422228
   662.504  0.423711
   663.423  0.425198
   664.343  0.426691
   665.265  0.428189
   666.187  0.429693
   667.112  0.431201
   668.037  0.432715
   668.964  0.434235
   669.892  0.435738
   670.821  0.437231
   671.752  0.438729
   672.684  0.440232
   673.617  0.441740
   674.551  0.443253
   675.487  0.444771
   676.424  0.446295
   677.362  0.447823
   678.302  0.449357
   679.243  0.450897
   680.185  0.452441
   681.129  0.453953
   682.074  0.455469
   683.020  0.456991
   683.968  0.458517
   684.917  0.460048
   685.867  0.461585
   686.818  0.463127
   687.771  0.464674
   688.725  0.466226
   689.680  0.467783
   690.637  0.469346
   691.595  0.470908
   692.555  0.472467
   693.516  0.474032
   694.478  0.475601
   695.441  0.477176
   696.406  0.478756
   697.372  0.480342
   698.339  0.481932
   699.308  0.483528
   700.278  0.485129
   701.250  0.486735
   702.222  0.488347
   703.197  0.490080
   704.172  0.491841
   705.149  0.493608
   706.127  0.495382
   707.107  0.497161
   708.088  0.498948
   709.070  0.500740
   710.054  0.502539
   711.039  0.504344
   712.025  0.506157
   713.013  0.507975
   714.002  0.509827
   714.992  0.511757
   715.984  0.513696
   716.978  0.515641
   717.972  0.517594
   718.968  0.519555
   719.966  0.521522
   720.964  0.523497
   721.965  0.525480
   722.966  0.527470
   723.969  0.529468
   724.973  0.531473
   725.979  0.533486
   726.986  0.535506
   727.995  0.537534
   729.005  0.539569
   730.016  0.541612
   731.029  0.543663
   732.043  0.545721
   733.058  0.547788
   734.075  0.549862
   735.094  0.551944
   736.113  0.554034
   737.135  0.556132
   738.157  0.558238
   739.181  0.560351
   740.207  0.562473
   741.234  0.564603
   742.262  0.566741
   743.292  0.568887
   744.323  0.571040
   745.355  0.573203
   746.389  0.575373
   747.425  0.577552
   748.461  0.579738
   749.500  0.581934
   750.540  0.584137
   751.581  0.586349
   752.623  0.588569
   753.667  0.590798
   754.713  0.593035
   755.760  0.595281
   756.808  0.597535
   757.858  0.599798
   758.910  0.602069
   759.962  0.604348
   761.017  0.606637
   762.072  0.608935
   763.130  0.611241
   764.188  0.613557
   765.248  0.615880
   766.310  0.618213
   767.373  0.620554
   768.438  0.622905
   769.504  0.625265
   770.571  0.627633
   771.640  0.630010
   772.711  0.632396
   773.782  0.634792
   774.856  0.637197
   775.931  0.639612
   777.007  0.642036
   778.085  0.644469
   779.165  0.646911
   780.245  0.649363
   781.328  0.651823
   782.412  0.654293
   783.497  0.656773
   784.584  0.659262
   785.673  0.661760
   786.762  0.664268
   787.854  0.666786
   788.947  0.669314
   790.041  0.671852
   791.137  0.674398
   792.235  0.676955
   793.334  0.679522
   794.434  0.682097
   795.536  0.684683
   796.640  0.687279
   797.745  0.689884
   798.852  0.692500
   799.960  0.695126
   801.070  0.697762
   802.181  0.700407
   803.294  0.703063
   804.408  0.705729
   805.524  0.708405
   806.642  0.711091
   807.761  0.713787
   808.881  0.716494
   810.003  0.719211
   811.127  0.721938
   812.252  0.724675
   813.379  0.727422
   814.508  0.730180
   815.638  0.732948
   816.769  0.735726
   817.902  0.738516
   819.037  0.741315
   820.173  0.744126
   821.311  0.746947
   822.450  0.749779
   823.591  0.752621
   824.734  0.755474
   825.878  0.758338
   827.023  0.761212
   828.171  0.764097
   829.320  0.766992
   830.470  0.769900
   831.622  0.772818
   832.776  0.775747
   833.931  0.778687
   835.088  0.781639
   836.246  0.784601
   837.406  0.787575
   838.568  0.790565
   839.732  0.793570
   840.896  0.796587
   842.063  0.799615
   843.231  0.802655
   844.401  0.805706
   845.572  0.808769
   846.745  0.811843
   847.920  0.814930
   849.096  0.818028
   850.274  0.821137
   851.454  0.824259
   852.635  0.827403
   853.818  0.830559
   855.002  0.833727
   856.188  0.836908
   857.376  0.840100
   858.565  0.843305
   859.756  0.846522
   860.949  0.849751
   862.144  0.852992
   863.340  0.856246
   864.537  0.859512
   865.737  0.862795
   866.938  0.866096
   868.140  0.869410
   869.345  0.872737
   870.551  0.876076
   871.758  0.879428
   872.968  0.882792
   874.179  0.886171
   875.391  0.889561
   876.606  0.892964
   877.822  0.896381
   879.040  0.899811
   880.259  0.903253
   881.480  0.906708
   882.703  0.910176
   883.928  0.913657
   885.154  0.917152
   886.382  0.920660
   887.611  0.924182
   888.843  0.927717
   890.076  0.931265
   891.310  0.934827
   892.547  0.938404
   893.785  0.941993
   895.025  0.945596
   896.267  0.949213
   897.510  0.952843
   898.755  0.956488
   900.002  0.960146
   901.250  0.963819
   902.501  0.967505
   903.753  0.971206
   905.006  0.974920
   906.262  0.978650
   907.519  0.982393
   908.778  0.986150
   910.039  0.989921
   911.301  0.993708
   912.565  0.997508
   913.831  1.00132
   915.099  1.00515
   916.369  1.00900
   917.640  1.01286
   918.913  1.01673
   920.188  1.02062
   921.464  1.02452
   922.742  1.02844
   924.023  1.03239
   925.304  1.03636
   926.588  1.04035
   927.873  1.04434
   929.161  1.04836
   930.450  1.05239
   931.740  1.05643
   933.033  1.06049
   934.327  1.06457
   935.623  1.06866
   936.921  1.07277
   938.221  1.07689
   939.523  1.08104
   940.826  1.08520
   942.131  1.08937
   943.438  1.09356
   944.747  1.09777
   946.058  1.10199
   947.370  1.10623
   948.684  1.11049
   950.000  1.11476
   951.318  1.11905
   952.638  1.12335
   953.960  1.12768
   955.283  1.13202
   956.608  1.13637
   957.935  1.14075
   959.264  1.14514
   960.595  1.14955
   961.927  1.15397
   963.262  1.15842
   964.598  1.16288
   965.936  1.16735
   967.276  1.17185
   968.618  1.17636
   969.962  1.18089
   971.307  1.18544
   972.655  1.19000
   974.004  1.19459
   975.355  1.19919
   976.709  1.20381
   978.063  1.20845
   979.420  1.21310
   980.779  1.21777
   982.140  1.22246
   983.502  1.22717
   984.866  1.23190
   986.233  1.23664
   987.601  1.24140
   988.971  1.24618
   990.343  1.25098
   991.717  1.25580
   993.093  1.26064
   994.470  1.26549
   995.850  1.27036
   997.231  1.27525
   998.615  1.28017
   1000.00  1.28509
   1001.39  1.29004
   1002.78  1.29501
   1004.17  1.29999
   1005.56  1.30500
   1006.96  1.31002
   1008.35  1.31507
   1009.75  1.32013
   1011.15  1.32521
   1012.55  1.33031
   1013.96  1.33543
   1015.37  1.34057
   1016.77  1.34573
   1018.19  1.35089
   1019.60  1.35608
   1021.01  1.36129
   1022.43  1.36652
   1023.85  1.37177
   1025.27  1.37704
   1026.69  1.38232
   1028.11  1.38763
   1029.54  1.39296
   1030.97  1.39831
   1032.40  1.40369
   1033.83  1.40913
   1035.26  1.41460
   1036.70  1.42009
   1038.14  1.42560
   1039.58  1.43113
   1041.02  1.43668
   1042.47  1.44225
   1043.91  1.44785
   1045.36  1.45346
   1046.81  1.45910
   1048.26  1.46476
   1049.72  1.47048
   1051.17  1.47625
   1052.63  1.48204
   1054.09  1.48785
   1055.55  1.49369
   1057.02  1.49955
   1058.48  1.50543
   1059.95  1.51133
   1061.42  1.51726
   1062.90  1.52321
   1064.37  1.52919
   1065.85  1.53519
   1067.33  1.54120
   1068.81  1.54724
   1070.29  1.55331
   1071.77  1.55940
   1073.26  1.56551
   1074.75  1.57165
   1076.24  1.57781
   1077.73  1.58399
   1079.23  1.59020
   1080.73  1.59643
   1082.22  1.60269
   1083.73  1.60897
   1085.23  1.61528
   1086.73  1.62162
   1088.24  1.62798
   1089.75  1.63436
   1091.26  1.64077
   1092.78  1.64721
   1094.29  1.65367
   1095.81  1.66015
   1097.33  1.66666
   1098.85  1.67320
   1100.38  1.67976
   1101.91  1.68636
   1103.43  1.69298
   1104.96  1.69962
   1106.50  1.70629
   1108.03  1.71299
   1109.57  1.71972
   1111.11  1.72647
   1112.65  1.73325
   1114.19  1.74005
   1115.74  1.74688
   1117.29  1.75374
   1118.84  1.76062
   1120.39  1.76753
   1121.94  1.77446
   1123.50  1.78141
   1125.06  1.78840
   1126.62  1.79541
   1128.18  1.80245
   1129.75  1.80952
   1131.31  1.81662
   1132.88  1.82374
   1134.46  1.83089
   1136.03  1.83807
   1137.61  1.84528
   1139.18  1.85251
   1140.76  1.85978
   1142.35  1.86707
   1143.93  1.87439
   1145.52  1.88174
   1147.11  1.88911
   1148.70  1.89652
   1150.29  1.90396
   1151.89  1.91142
   1153.49  1.91892
   1155.09  1.92644
   1156.69  1.93399
   1158.29  1.94158
   1159.90  1.94919
   1161.51  1.95684
   1163.12  1.96451
   1164.73  1.97222
   1166.35  1.97995
   1167.97  1.98772
   1169.59  1.99551
   1171.21  2.00334
   1172.83  2.01120
   1174.46  2.01909
   1176.09  2.02700
   1177.72  2.03495
   1179.36  2.04293
   1180.99  2.05094
   1182.63  2.05897
   1184.27  2.06705
   1185.91  2.07515
   1187.56  2.08329
   1189.21  2.09146
   1190.86  2.09965
   1192.51  2.10789
   1194.16  2.11615
   1195.82  2.12445
   1197.48  2.13278
   1199.14  2.14114
   1200.80  2.14954
   1202.47  2.15797
   1204.14  2.16643
   1205.81  2.17492
   1207.48  2.18345
   1209.16  2.19201
   1210.83  2.20061
   1212.51  2.20924
   1214.19  2.21790
   1215.88  2.22660
   1217.57  2.23534
   1219.26  2.24411
   1220.95  2.25291
   1222.64  2.26174
   1224.34  2.27061
   1226.03  2.27952
   1227.74  2.28846
   1229.44  2.29744
   1231.14  2.30645
   1232.85  2.31554
   1234.56  2.32467
   1236.28  2.33384
   1237.99  2.34304
   1239.71  2.35229
   1241.43  2.36157
   1243.15  2.37088
   1244.87  2.38023
   1246.60  2.38962
   1248.33  2.39905
   1250.06  2.40851
   1251.80  2.41802
   1253.53  2.42762
   1255.27  2.43725
   1257.01  2.44693
   1258.76  2.45664
   1260.50  2.46639
   1262.25  2.47618
   1264.00  2.48600
   1265.76  2.49587
   1267.51  2.50578
   1269.27  2.51572
   1271.03  2.52571
   1272.79  2.53578
   1274.56  2.54593
   1276.33  2.55612
   1278.10  2.56634
   1279.87  2.57661
   1281.65  2.58692
   1283.43  2.59727
   1285.21  2.60767
   1286.99  2.61810
   1288.77  2.62858
   1290.56  2.63910
   1292.35  2.64965
   1294.15  2.66025
   1295.94  2.67089
   1297.74  2.68157
   1299.54  2.69230
   1301.34  2.70306
   1303.15  2.71387
   1304.95  2.72473
   1306.77  2.73562
   1308.58  2.74656
   1310.39  2.75755
   1312.21  2.76858
   1314.03  2.77965
   1315.85  2.79077
   1317.68  2.80193
   1319.51  2.81314
   1321.34  2.82439
   1323.17  2.83568
   1325.01  2.84703
   1326.85  2.85841
   1328.69  2.86984
   1330.53  2.88132
   1332.37  2.89285
   1334.22  2.90442
   1336.07  2.91604
   1337.93  2.92771
   1339.78  2.93942
   1341.64  2.95118
   1343.50  2.96299
   1345.37  2.97484
   1347.23  2.98674
   1349.10  2.99869
   1350.97  3.01069
   1352.85  3.02274
   1354.72  3.03483
   1356.60  3.04697
   1358.49  3.05916
   1360.37  3.07140
   1362.26  3.08368
   1364.15  3.09602
   1366.04  3.10840
   1367.94  3.12083
   1369.83  3.13332
   1371.73  3.14585
   1373.64  3.15844
   1375.54  3.17107
   1377.45  3.18375
   1379.36  3.19649
   1381.27  3.20927
   1383.19  3.22211
   1385.11  3.23500
   1387.03  3.24794
   1388.96  3.26093
   1390.88  3.27397
   1392.81  3.28706
   1394.74  3.30021
   1396.68  3.31341
   1398.62  3.32667
   1400.56  3.33997
   1402.50  3.35333
   1404.44  3.36675
   1406.39  3.38022
   1408.34  3.39374
   1410.30  3.40732
   1412.25  3.42095
   1414.21  3.43463
   1416.18  3.44837
   1418.14  3.46217
   1420.11  3.47602
   1422.08  3.48992
   1424.05  3.50389
   1426.03  3.51790
   1428.00  3.53198
   1429.98  3.54611
   1431.97  3.56030
   1433.96  3.57454
   1435.94  3.58884
   1437.94  3.60320
   1439.93  3.61762
   1441.93  3.63209
   1443.93  3.64662
   1445.93  3.66121
   1447.94  3.67587
   1449.95  3.69058
   1451.96  3.70535
   1453.97  3.72019
   1455.99  3.73508
   1458.01  3.75003
   1460.03  3.76504
   1462.06  3.78011
   1464.09  3.79524
   1466.12  3.81043
   1468.15  3.82569
   1470.19  3.84101
   1472.23  3.85641
   1474.27  3.87187
   1476.31  3.88740
   1478.36  3.90299
   1480.41  3.91863
   1482.47  3.93435
   1484.52  3.95012
   1486.58  3.96596
   1488.65  3.98186
   1490.71  3.99783
   1492.78  4.01385
   1494.85  4.03002
   1496.92  4.04626
   1499.00  4.06257
   1501.08  4.07895
   1503.16  4.09539
   1505.25  4.11189
   1507.33  4.12847
   1509.43  4.14511
   1511.52  4.16182
   1513.62  4.17859
   1515.72  4.19544
   1517.82  4.21235
   1519.92  4.22934
   1522.03  4.24640
   1524.14  4.26353
   1526.26  4.28073
   1528.38  4.29800
   1530.50  4.31533
   1532.62  4.33274
   1534.75  4.35021
   1536.88  4.36776
   1539.01  4.38538
   1541.14  4.40307
   1543.28  4.42083
   1545.42  4.43867
   1547.56  4.45657
   1549.71  4.47455
   1551.86  4.49260
   1554.01  4.51073
   1556.17  4.52892
   1558.33  4.54719
   1560.49  4.56554
   1562.66  4.58396
   1564.82  4.60245
   1566.99  4.62102
   1569.17  4.63966
   1571.35  4.65838
   1573.52  4.67717
   1575.71  4.69604
   1577.89  4.71499
   1580.08  4.73401
   1582.27  4.75311
   1584.47  4.77228
   1586.67  4.79154
   1588.87  4.81087
   1591.07  4.83028
   1593.28  4.84977
   1595.49  4.86933
   1597.70  4.88897
   1599.92  4.90870
   1602.14  4.92850
   1604.36  4.94839
   1606.59  4.96835
   1608.82  4.98839
   1611.05  5.00852
   1613.28  5.02872
   1615.52  5.04901
   1617.76  5.06938
   1620.01  5.08983
   1622.25  5.11037
   1624.50  5.13099
   1626.76  5.15169
   1629.02  5.17248
   1631.28  5.19334
   1633.54  5.21430
   1635.80  5.23534
   1638.07  5.25646
   1640.35  5.27767
   1642.62  5.29896
   1644.90  5.32034
   1647.18  5.34180
   1649.47  5.36335
   1651.76  5.38499
   1654.05  5.40671
   1656.34  5.42852
   1658.64  5.45042
   1660.94  5.47241
   1663.24  5.49448
   1665.55  5.51665
   1667.86  5.53890
   1670.18  5.56125
   1672.49  5.58368
   1674.81  5.60620
   1677.14  5.62882
   1679.46  5.65153
   1681.79  5.67432
   1684.13  5.69721
   1686.46  5.72020
   1688.80  5.74327
   1691.14  5.76644
   1693.49  5.78970
   1695.84  5.81306
   1698.19  5.83650
   1700.55  5.86004
   1702.91  5.88367
   1705.27  5.90740
   1707.64  5.93122
   1710.00  5.95514
   1712.38  5.97915
   1714.75  6.00326
   1717.13  6.02747
   1719.51  6.05177
   1721.90  6.07618
   1724.29  6.10068
   1726.68  6.12540
   1729.07  6.15027
   1731.47  6.17524
   1733.88  6.20031
   1736.28  6.22548
   1738.69  6.25076
   1741.10  6.27614
   1743.52  6.30161
   1745.94  6.32720
   1748.36  6.35289
   1750.78  6.37868
   1753.21  6.40458
   1755.64  6.43064
   1758.08  6.45682
   1760.52  6.48309
   1762.96  6.50947
   1765.41  6.53596
   1767.86  6.56255
   1770.31  6.58926
   1772.76  6.61607
   1775.22  6.64300
   1777.69  6.67003
   1780.15  6.69717
   1782.62  6.72444
   1785.09  6.75186
   1787.57  6.77938
   1790.05  6.80701
   1792.53  6.83476
   1795.02  6.86262
   1797.51  6.89059
   1800.00  6.91867
   1802.50  6.94688
   1805.00  6.97519
   1807.51  7.00362
   1810.01  7.03217
   1812.52  7.06083
   1815.04  7.08961
   1817.56  7.11851
   1820.08  7.14752
   1822.60  7.17666
   1825.13  7.20591
   1827.66  7.23528
   1830.20  7.26477
   1832.74  7.29438
   1835.28  7.32411
   1837.83  7.35396
   1840.38  7.38394
   1842.93  7.41403
   1845.48  7.44424
   1848.05  7.47457
   1850.61  7.50504
   1853.18  7.53562
   1855.75  7.56632
   1858.32  7.59716
   1860.90  7.62812
   1863.48  7.65920
   1866.07  7.69041
   1868.65  7.72176
   1871.25  7.75322
   1873.84  7.78481
   1876.44  7.81653
   1879.05  7.84839
   1881.65  7.88037
   1884.26  7.91248
   1886.88  7.94472
   1889.49  7.97710
   1892.12  8.00960
   1894.74  8.04224
   1897.37  8.07502
   1900.00  8.10792
   1902.64  8.14096
   1905.28  8.17413
   1907.92  8.20745
   1910.57  8.24089
   1913.22  8.27447
   1915.87  8.30819
   1918.53  8.34205
   1921.19  8.37604
   1923.85  8.41017
   1926.52  8.44445
   1929.20  8.47885
   1931.87  8.51340
   1934.55  8.54809
   1937.24  8.58293
   1939.92  8.61790
   1942.61  8.65301
   1945.31  8.68827
   1948.01  8.72368
   1950.71  8.75922
   1953.42  8.79491
   1956.13  8.83075
   1958.84  8.86673
   1961.56  8.90286
   1964.28  8.93914
   1967.00  8.97558
   1969.73  9.01215
   1972.47  9.04888
   1975.20  9.08575
   1977.94  9.12279
   1980.69  9.15996
   1983.43  9.19729
   1986.19  9.23478
   1988.94  9.27241
   1991.70  9.31020
   1994.46  9.34799
   1997.23  9.38581
   2000.00  9.42378
   2002.77  9.46190
   2005.55  9.50018
   2008.34  9.53862
   2011.12  9.57721
   2013.91  9.61595
   2016.70  9.65486
   2019.50  9.69392
   2022.30  9.73313
   2025.11  9.77251
   2027.92  9.81250
   2030.73  9.85267
   2033.55  9.89300
   2036.37  9.93349
   2039.20  9.97417
   2042.02  10.0150
   2044.86  10.0560
   2047.69  10.0972
   2050.53  10.1385
   2053.38  10.1800
   2056.23  10.2217
   2059.08  10.2635
   2061.94  10.3056
   2064.80  10.3478
   2067.66  10.3902
   2070.53  10.4327
   2073.40  10.4755
   2076.28  10.5184
   2079.16  10.5615
   2082.04  10.6047
   2084.93  10.6482
   2087.82  10.6918
   2090.72  10.7356
   2093.62  10.7796
   2096.52  10.8238
   2099.43  10.8681
   2102.35  10.9127
   2105.26  10.9574
   2108.18  11.0024
   2111.11  11.0475
   2114.04  11.0928
   2116.97  11.1382
   2119.91  11.1839
   2122.85  11.2297
   2125.79  11.2758
   2128.74  11.3221
   2131.69  11.3685
   2134.65  11.4152
   2137.61  11.4620
   2140.58  11.5091
   2143.55  11.5563
   2146.52  11.6037
   2149.50  11.6513
   2152.48  11.6991
   2155.47  11.7471
   2158.46  11.7954
   2161.45  11.8438
   2164.45  11.8924
   2167.45  11.9412
   2170.46  11.9903
   2173.47  12.0395
   2176.48  12.0890
   2179.50  12.1386
   2182.53  12.1885
   2185.56  12.2385
   2188.59  12.2887
   2191.62  12.3392
   2194.66  12.3899
   2197.71  12.4408
   2200.76  12.4920
   2203.81  12.5433
   2206.87  12.5949
   2209.93  12.6467
   2212.99  12.6987
   2216.06  12.7509
   2219.14  12.8033
   2222.22  12.8559
   2225.30  12.9088
   2228.39  12.9619
   2231.48  13.0151
   2234.57  13.0687
   2237.67  13.1224
   2240.78  13.1764
   2243.89  13.2306
   2247.00  13.2850
   2250.12  13.3397
   2253.24  13.3945
   2256.36  13.4496
   2259.49  13.5050
   2262.63  13.5605
   2265.77  13.6163
   2268.91  13.6723
   2272.06  13.7286
   2275.21  13.7852
   2278.37  13.8419
   2281.53  13.8989
   2284.69  13.9561
   2287.86  14.0136
   2291.04  14.0713
   2294.21  14.1292
   2297.40  14.1874
   2300.58  14.2458
   2303.78  14.3045
   2306.97  14.3634
   2310.17  14.4226
   2313.38  14.4820
   2316.59  14.5417
   2319.80  14.6016
   2323.02  14.6617
   2326.24  14.7221
   2329.47  14.7828
   2332.70  14.8437
   2335.93  14.9048
   2339.18  14.9662
   2342.42  15.0280
   2345.67  15.0900
   2348.92  15.1523
   2352.18  15.2148
   2355.45  15.2776
   2358.71  15.3407
   2361.99  15.4040
   2365.26  15.4676
   2368.54  15.5314
   2371.83  15.5955
   2375.12  15.6599
   2378.41  15.7245
   2381.71  15.7894
   2385.02  15.8546
   2388.33  15.9200
   2391.64  15.9857
   2394.96  16.0517
   2398.28  16.1179
   2401.61  16.1845
   2404.94  16.2513
   2408.27  16.3183
   2411.62  16.3857
   2414.96  16.4533
   2418.31  16.5213
   2421.67  16.5895
   2425.03  16.6580
   2428.39  16.7268
   2431.76  16.7959
   2435.13  16.8653
   2438.51  16.9350
   2441.89  17.0049
   2445.28  17.0752
   2448.67  17.1457
   2452.07  17.2165
   2455.47  17.2877
   2458.88  17.3592
   2462.29  17.4310
   2465.70  17.5031
   2469.13  17.5755
   2472.55  17.6482
   2475.98  17.7212
   2479.42  17.7945
   2482.85  17.8681
   2486.30  17.9421
   2489.75  18.0163
   2493.20  18.0908
   2496.66  18.1657
   2500.12  18.2408
   2503.59  18.3163
   2507.07  18.3921
   2510.54  18.4682
   2514.03  18.5446
   2517.51  18.6213
   2521.01  18.6984
   2524.50  18.7757
   2528.01  18.8534
   2531.51  18.9314
   2535.03  19.0098
   2538.54  19.0885
   2542.06  19.1676
   2545.59  19.2469
   2549.12  19.3266
   2552.66  19.4067
   2556.20  19.4870
   2559.74  19.5677
   2563.30  19.6488
   2566.85  19.7301
   2570.41  19.8118
   2573.98  19.8939
   2577.55  19.9763
   2581.13  20.0592
   2584.71  20.1424
   2588.29  20.2260
   2591.88  20.3099
   2595.48  20.3941
   2599.08  20.4787
   2602.68  20.5637
   2606.29  20.6490
   2609.91  20.7347
   2613.53  20.8207
   2617.16  20.9070
   2620.79  20.9938
   2624.42  21.0808
   2628.06  21.1682
   2631.71  21.2560
   2635.36  21.3441
   2639.02  21.4326
   2642.68  21.5215
   2646.34  21.6107
   2650.01  21.7003
   2653.69  21.7903
   2657.37  21.8806
   2661.06  21.9714
   2664.75  22.0627
   2668.45  22.1544
   2672.15  22.2465
   2675.86  22.3390
   2679.57  22.4318
   2683.28  22.5250
   2687.01  22.6186
   2690.73  22.7127
   2694.47  22.8070
   2698.21  22.9018
   2701.95  22.9970
   2705.70  23.0926
   2709.45  23.1886
   2713.21  23.2850
   2716.97  23.3819
   2720.74  23.4791
   2724.52  23.5767
   2728.30  23.6747
   2732.08  23.7732
   2735.87  23.8720
   2739.67  23.9712
   2743.47  24.0709
   2747.27  24.1710
   2751.08  24.2715
   2754.90  24.3725
   2758.72  24.4740
   2762.55  24.5758
   2766.38  24.6780
   2770.22  24.7807
   2774.06  24.8838
   2777.91  24.9874
   2781.76  25.0913
   2785.62  25.1957
   2789.49  25.3006
   2793.36  25.4058
   2797.23  25.5115
   2801.11  25.6176
   2805.00  25.7242
   2808.89  25.8312
   2812.79  25.9387
   2816.69  26.0466
   2820.60  26.1549
   2824.51  26.2637
   2828.43  26.3730
   2832.35  26.4827
   2836.28  26.5928
   2840.21  26.7038
   2844.15  26.8153
   2848.10  26.9272
   2852.05  27.0397
   2856.01  27.1525
   2859.97  27.2659
   2863.94  27.3797
   2867.91  27.4940
   2871.89  27.6088
   2875.87  27.7241
   2879.86  27.8398
   2883.86  27.9559
   2887.86  28.0725
   2891.86  28.1896
   2895.88  28.3071
   2899.89  28.4251
   2903.92  28.5436
   2907.95  28.6626
   2911.98  28.7821
   2916.02  28.9021
   2920.06  29.0226
   2924.11  29.1436
   2928.17  29.2651
   2932.23  29.3873
   2936.30  29.5100
   2940.37  29.6333
   2944.45  29.7571
   2948.54  29.8813
   2952.63  30.0062
   2956.72  30.1315
   2960.83  30.2573
   2964.93  30.3837
   2969.05  30.5106
   2973.17  30.6380
   2977.29  30.7660
   2981.42  30.8946
   2985.56  31.0237
   2989.70  31.1534
   2993.85  31.2837
   2998.00  31.4144
   3002.16  31.5457
   3006.32  31.6776
   3010.49  31.8100
   3014.67  31.9429
   3018.85  32.0765
   3023.04  32.2105
   3027.23  32.3453
   3031.43  32.4806
   3035.64  32.6166
   3039.85  32.7531
   3044.07  32.8901
   3048.29  33.0278
   3052.52  33.1660
   3056.75  33.3048
   3060.99  33.4442
   3065.24  33.5842
   3069.49  33.7247
   3073.75  33.8659
   3078.01  34.0077
   3082.28  34.1502
   3086.56  34.2932
   3090.84  34.4368
   3095.13  34.5811
   3099.42  34.7260
   3103.72  34.8714
   3108.03  35.0175
   3112.34  35.1642
   3116.66  35.3114
   3120.98  35.4594
   3125.31  35.6079
   3129.65  35.7572
   3133.99  35.9072
   3138.34  36.0577
   3142.69  36.2089
   3147.05  36.3608
   3151.42  36.5132
   3155.79  36.6663
   3160.17  36.8200
   3164.55  36.9744
   3168.94  37.1295
   3173.34  37.2851
   3177.74  37.4416
   3182.15  37.5988
   3186.56  37.7565
   3190.98  37.9150
   3195.41  38.0741
   3199.84  38.2339
   3204.28  38.3944
   3208.72  38.5554
   3213.18  38.7173
   3217.63  38.8798
   3222.10  39.0429
   3226.57  39.2068
   3231.04  39.3716
   3235.53  39.5370
   3240.01  39.7031
   3244.51  39.8700
   3249.01  40.0375
   3253.52  40.2057
   3258.03  40.3746
   3262.55  40.5443
   3267.08  40.7146
   3271.61  40.8857
   3276.15  41.0575
   3280.69  41.2301
   3285.24  41.4035
   3289.80  41.5777
   3294.36  41.7526
   3298.93  41.9281
   3303.51  42.1045
   3308.09  42.2815
   3312.68  42.4594
   3317.28  42.6380
   3321.88  42.8173
   3326.49  42.9974
   3331.10  43.1783
   3335.72  43.3600
   3340.35  43.5425
   3344.99  43.7258
   3349.63  43.9098
   3354.27  44.0947
   3358.93  44.2803
   3363.59  44.4667
   3368.25  44.6539
   3372.92  44.8418
   3377.60  45.0306
   3382.29  45.2201
   3386.98  45.4106
   3391.68  45.6020
   3396.39  45.7941
   3401.10  45.9872
   3405.81  46.1810
   3410.54  46.3756
   3415.27  46.5711
   3420.01  46.7674
   3424.75  46.9644
   3429.50  47.1624
   3434.26  47.3612
   3439.03  47.5607
   3443.80  47.7615
   3448.57  47.9629
   3453.36  48.1653
   3458.15  48.3686
   3462.95  48.5726
   3467.75  48.7775
   3472.56  48.9833
   3477.38  49.1899
   3482.20  49.3975
   3487.03  49.6059
   3491.87  49.8152
   3496.71  50.0255
   3501.57  50.2367
   3506.42  50.4490
   3511.29  50.6621
   3516.16  50.8760
   3521.04  51.0909
   3525.92  51.3068
   3530.81  51.5234
   3535.71  51.7411
   3540.61  51.9596
   3545.53  52.1790
   3550.45  52.3995
   3555.37  52.6210
   3560.30  52.8435
   3565.24  53.0671
   3570.19  53.2914
   3575.14  53.5169
   3580.10  53.7432
   3585.07  53.9704
   3590.04  54.1987
   3595.02  54.4280
   3600.01  54.6581
   3605.00  54.8892
   3610.00  55.1214
   3615.01  55.3548
   3620.03  55.5891
   3625.05  55.8244
   3630.08  56.0607
   3635.11  56.2981
   3640.16  56.5363
   3645.21  56.7757
   3650.26  57.0161
   3655.33  57.2573
   3660.40  57.4997
   3665.47  57.7431
   3670.56  57.9877
   3675.65  58.2335
   3680.75  58.4802
   3685.86  58.7281
   3690.97  58.9770
   3696.09  59.2268
   3701.22  59.4778
   3706.35  59.7299
   3711.49  59.9830
   3716.64  60.2372
   3721.80  60.4923
   3726.96  60.7487
   3732.13  61.0065
   3737.31  61.2653
   3742.49  61.5253
   3747.69  61.7863
   3752.88  62.0484
   3758.09  62.3117
   3763.30  62.5759
   3768.53  62.8415
   3773.75  63.1081
   3778.99  63.3757
   3784.23  63.6446
   3789.48  63.9149
   3794.74  64.1865
   3800.00  64.4593
   3805.27  64.7332
   3810.55  65.0082
   3815.84  65.2845
   3821.13  65.5618
   3826.43  65.8405
   3831.74  66.1203
   3837.06  66.4012
   3842.38  66.6833
   3847.71  66.9667
   3853.05  67.2514
   3858.39  67.5375
   3863.75  67.8247
   3869.11  68.1130
   3874.47  68.4027
   3879.85  68.6935
   3885.23  68.9857
   3890.62  69.2791
   3896.02  69.5736
   3901.42  69.8694
   3906.83  70.1666
   3912.25  70.4650
   3917.68  70.7651
   3923.12  71.0665
   3928.56  71.3690
   3934.01  71.6729
   3939.47  71.9779
   3944.93  72.2845
   3950.40  72.5923
   3955.88  72.9012
   3961.37  73.2116
   3966.87  73.5234
   3972.37  73.8363
   3977.88  74.1491
   3983.40  74.4628
   3988.93  74.7779
   3994.46  75.0944
   4000.00  75.4121
   4005.55  75.7313
   4011.11  76.0519
   4016.67  76.3737
   4022.24  76.6970
   4027.82  77.0216
   4033.41  77.3475
   4039.01  77.6756
   4044.61  78.0071
   4050.22  78.3399
   4055.84  78.6743
   4061.46  79.0099
   4067.10  79.3471
   4072.74  79.6857
   4078.39  80.0256
   4084.05  80.3671
   4089.71  80.7101
   4095.39  81.0543
   4101.07  81.4002
   4106.76  81.7479
   4112.46  82.0971
   4118.16  82.4479
   4123.87  82.8000
   4129.59  83.1538
   4135.32  83.5091
   4141.06  83.8658
   4146.80  84.2241
   4152.56  84.5840
   4158.32  84.9452
   4164.09  85.3082
   4169.86  85.6727
   4175.65  86.0386
   4181.44  86.4063
   4187.24  86.7755
   4193.05  87.1463
   4198.87  87.5187
   4204.69  87.8925
   4210.52  88.2682
   4216.37  88.6453
   4222.21  89.0240
   4228.07  89.4044
   4233.94  89.7862
   4239.81  90.1702
   4245.69  90.5561
   4251.58  90.9434
   4257.48  91.3326
   4263.39  91.7234
   4269.30  92.1157
   4275.22  92.5098
   4281.15  92.9056
   4287.09  93.3029
   4293.04  93.7022
   4299.00  94.1029
   4304.96  94.5055
   4310.93  94.9100
   4316.91  95.3161
   4322.90  95.7242
   4328.90  96.1339
   4334.90  96.5452
   4340.92  96.9585
   4346.94  97.3735
   4352.97  97.7901
   4359.01  98.2086
   4365.06  98.6288
   4371.11  99.0509
   4377.17  99.4750
   4383.25  99.9008
   4389.33  100.329
   4395.42  100.758
   4401.51  101.190
   4407.62  101.623
   4413.73  102.058
   4419.86  102.495
   4425.99  102.934
   4432.13  103.375
   4438.28  103.817
   4444.44  104.262
   4450.60  104.709
   4456.77  105.158
   4462.96  105.608
   4469.15  106.061
   4475.35  106.516
   4481.56  106.972
   4487.77  107.431
   4494.00  107.891
   4500.23  108.353
   4506.48  108.818
   4512.73  109.284
   4518.99  109.753
   4525.26  110.224
   4531.54  110.697
   4537.82  111.171
   4544.12  111.648
   4550.42  112.127
   4556.73  112.608
   4563.05  113.091
   4569.38  113.576
   4575.72  114.063
   4582.07  114.553
   4588.43  115.044
   4594.79  115.538
   4601.17  116.034
   4607.55  116.532
   4613.94  117.032
   4620.34  117.535
   4626.75  118.040
   4633.17  118.547
   4639.60  119.055
   4646.04  119.567
   4652.48  120.080
   4658.93  120.596
   4665.40  121.113
   4671.87  121.634
   4678.35  122.156
   4684.84  122.681
   4691.34  123.208
   4697.85  123.737
   4704.37  124.268
   4710.89  124.802
   4717.43  125.338
   4723.97  125.876
   4730.52  126.417
   4737.09  126.960
   4743.66  127.505
   4750.24  128.053
   4756.83  128.604
   4763.43  129.156
   4770.04  129.712
   4776.65  130.269
   4783.28  130.829
   4789.92  131.391
   4796.56  131.956
   4803.21  132.523
   4809.88  133.092
   4816.55  133.664
   4823.23  134.239
   4829.92  134.816
   4836.62  135.396
   4843.33  135.979
   4850.05  136.563
   4856.78  137.150
   4863.52  137.740
   4870.26  138.333
   4877.02  138.927
   4883.79  139.525
   4890.56  140.125
   4897.35  140.727
   4904.14  141.333
   4910.94  141.941
   4917.76  142.552
   4924.58  143.166
   4931.41  143.781
   4938.25  144.400
   4945.10  145.022
   4951.96  145.645
   4958.83  146.272
   4965.71  146.901
   4972.60  147.533
   4979.50  148.169
   4986.40  148.807
   4993.32  149.447
   5000.25  150.091
   5007.19  150.737
   5014.13  151.386
   5021.09  152.038
   5028.05  152.693
   5035.03  153.351
   5042.01  154.011
   5049.01  154.674
   5056.01  155.340
   5063.03  156.010
   5070.05  156.682
   5077.08  157.358
   5084.13  158.036
   5091.18  158.717
   5098.24  159.401
   5105.31  160.088
   5112.40  160.778
   5119.49  161.471
   5126.59  162.167
   5133.70  162.866
   5140.83  163.567
   5147.96  164.272
   5155.10  164.981
   5162.25  165.692
   5169.41  166.406
   5176.58  167.123
   5183.76  167.843
   5190.96  168.567
   5198.16  169.293
   5205.37  170.023
   5212.59  170.755
   5219.82  171.491
   5227.06  172.231
   5234.31  172.975
   5241.57  173.721
   5248.85  174.471
   5256.13  175.224
   5263.42  175.980
   5270.72  176.739
   5278.03  177.501
   5285.35  178.267
   5292.69  179.037
   5300.03  179.809
   5307.38  180.585
   5314.74  181.365
   5322.12  182.148
   5329.50  182.935
   5336.89  183.725
   5344.30  184.518
   5351.71  185.315
   5359.13  186.115
   5366.57  186.918
   5374.01  187.726
   5381.47  188.536
   5388.93  189.350
   5396.41  190.168
   5403.90  190.990
   5411.39  191.816
   5418.90  192.645
   5426.42  193.477
   5433.95  194.314
   5441.48  195.153
   5449.03  195.997
   5456.59  196.844
   5464.16  197.694
   5471.74  198.548
   5479.33  199.406
   5486.93  200.268
   5494.54  201.134
   5502.17  202.004
   5509.80  202.877
   5517.44  203.754
   5525.10  204.635
   5532.76  205.520
   5540.44  206.408
   5548.12  207.300
   5555.82  208.196
   5563.53  209.096
   5571.25  209.999
   5578.97  210.907
   5586.71  211.818
   5594.46  212.733
   5602.23  213.652
   5610.00  214.575
   5617.78  215.502
   5625.57  216.433
   5633.38  217.368
   5641.19  218.307
   5649.02  219.250
   5656.85  220.197
   5664.70  221.150
   5672.56  222.107
   5680.43  223.068
   5688.31  224.033
   5696.20  225.002
   5704.10  225.975
   5712.02  226.953
   5719.94  227.935
   5727.88  228.921
   5735.82  229.911
   5743.78  230.905
   5751.75  231.905
   5759.73  232.909
   5767.72  233.918
   5775.72  234.931
   5783.73  235.947
   5791.75  236.969
   5799.79  237.995
   5807.83  239.025
   5815.89  240.060
   5823.96  241.099
   5832.04  242.143
   5840.13  243.191
   5848.23  244.245
   5856.34  245.303
   5864.47  246.367
   5872.60  247.434
   5880.75  248.506
   5888.91  249.583
   5897.08  250.664
   5905.26  251.750
   5913.45  252.840
   5921.65  253.936
   5929.87  255.036
   5938.09  256.140
   5946.33  257.250
   5954.58  258.364
   5962.84  259.483
   5971.11  260.607
   5979.40  261.736
   5987.69  262.869
   5996.00  264.007
   6004.32  265.150
   6012.65  266.299
   6020.99  267.452
   6029.34  268.610
   6037.70  269.774
   6046.08  270.944
   6054.47  272.117
   6062.87  273.296
   6071.28  274.481
   6079.70  275.669
   6088.13  276.864
   6096.58  278.063
   6105.04  279.267
   6113.51  280.477
   6121.99  281.691
   6130.48  282.912
   6138.98  284.140
   6147.50  285.373
   6156.03  286.611
   6164.57  287.855
   6173.12  289.103
   6181.68  290.358
   6190.26  291.617
   6198.85  292.882
   6207.45  294.153
   6216.06  295.428
   6224.68  296.709
   6233.32  297.997
   6241.96  299.290
   6250.62  300.589
   6259.29  301.893
   6267.98  303.202
   6276.67  304.518
   6285.38  305.838
   6294.10  307.165
   6302.83  308.497
   6311.57  309.835
   6320.33  311.179
   6329.10  312.529
   6337.88  313.885
   6346.67  315.248
   6355.48  316.615
   6364.29  317.989
   6373.12  319.369
   6381.96  320.755
   6390.82  322.147
   6399.68  323.544
   6408.56  324.948
   6417.45  326.357
   6426.35  327.773
   6435.27  329.195
   6444.19  330.625
   6453.13  332.060
   6462.09  333.501
   6471.05  334.949
   6480.03  336.402
   6489.02  337.863
   6498.02  339.329
   6507.03  340.801
   6516.06  342.280
   6525.10  343.765
   6534.15  345.256
   6543.22  346.756
   6552.29  348.261
   6561.38  349.773
   6570.49  351.292
   6579.60  352.817
   6588.73  354.348
   6597.87  355.887
   6607.02  357.431
   6616.19  358.982
   6625.37  360.540
   6634.56  362.104
   6643.76  363.676
   6652.98  365.256
   6662.21  366.842
   6671.45  368.435
   6680.70  370.034
   6689.97  371.641
   6699.25  373.255
   6708.55  374.875
   6717.85  376.502
   6727.17  378.136
   6736.50  379.777
   6745.85  381.425
   6755.21  383.081
   6764.58  384.745
   6773.96  386.416
   6783.36  388.094
   6792.77  389.779
   6802.19  391.471
   6811.63  393.170
   6821.08  394.877
   6830.54  396.591
   6840.02  398.312
   6849.51  400.041
   6859.01  401.776
   6868.52  403.522
   6878.05  405.275
   6887.59  407.034
   6897.15  408.802
   6906.72  410.577
   6916.30  412.360
   6925.89  414.150
   6935.50  415.948
   6945.12  417.753
   6954.76  419.566
   6964.40  421.386
   6974.07  423.217
   6983.74  425.056
   6993.43  426.903
   7003.13  428.758
   7012.85  430.620
   7022.57  432.490
   7032.32  434.369
   7042.07  436.255
   7051.84  438.149
   7061.62  440.051
   7071.42  441.961
   7081.23  443.880
   7091.05  445.809
   7100.89  447.744
   7110.74  449.689
   7120.61  451.642
   7130.48  453.603
   7140.38  455.573
   7150.28  457.550
   7160.20  459.536
   7170.13  461.531
   7180.08  463.533
   7190.04  465.545
   7200.02  467.567
   7210.00  469.597
   7220.01  471.637
   7230.02  473.685
   7240.05  475.742
   7250.10  477.808
   7260.15  479.881
   7270.23  481.964
   7280.31  484.056
   7290.41  486.156
   7300.52  488.266
   7310.65  490.385
   7320.79  492.513
   7330.95  494.651
   7341.12  496.799
   7351.30  498.954
   7361.50  501.120
   7371.71  503.293
   7381.94  505.477
   7392.18  507.670
   7402.44  509.871
   7412.70  512.082
   7422.99  514.303
   7433.29  516.534
   7443.60  518.777
   7453.92  521.030
   7464.26  523.291
   7474.62  525.562
   7484.99  527.842
   7495.37  530.133
   7505.77  532.434
   7516.18  534.743
   7526.61  537.063
   7537.05  539.393
   7547.51  541.731
   7557.98  544.082
   7568.46  546.443
   7578.96  548.814
   7589.47  551.195
   7600.00  553.585
   7610.55  555.986
   7621.10  558.397
   7631.68  560.818
   7642.26  563.249
   7652.87  565.691
   7663.48  568.142
   7674.11  570.605
   7684.76  573.079
   7695.42  575.565
   7706.10  578.061
   7716.79  580.566
   7727.49  583.083
   7738.21  585.610
   7748.95  588.148
   7759.70  590.696
   7770.46  593.255
   7781.24  595.824
   7792.03  598.405
   7802.84  600.998
   7813.67  603.605
   7824.51  606.222
   7835.36  608.849
   7846.23  611.487
   7857.12  614.138
   7868.02  616.798
   7878.93  619.470
   7889.86  622.153
   7900.81  624.847
   7911.77  627.553
   7922.74  630.269
   7933.73  633.001
   7944.74  635.744
   7955.76  638.497
   7966.80  641.263
   7977.85  644.041
   7988.92  646.828
   8000.00  649.629
   8011.10  652.443
   8022.21  655.269
   8033.34  658.107
   8044.48  660.956
   8055.64  663.820
   8066.82  666.697
   8078.01  669.584
   8089.22  672.485
   8100.44  675.399
   8111.68  678.323
   8122.93  681.260
   8134.20  684.210
   8145.48  687.170
   8156.78  690.145
   8168.10  693.130
   8179.43  696.129
   8190.78  699.144
   8202.14  702.170
   8213.52  705.210
   8224.91  708.263
   8236.32  711.327
   8247.75  714.405
   8259.19  717.496
   8270.65  720.598
   8282.12  723.715
   8293.61  726.843
   8305.11  729.985
   8316.64  733.143
   8328.17  736.314
   8339.73  739.501
   8351.30  742.700
   8362.88  745.911
   8374.48  749.138
   8386.10  752.375
   8397.73  755.628
   8409.38  758.894
   8421.05  762.172
   8432.73  765.466
   8444.43  768.773
   8456.14  772.095
   8467.87  775.432
   8479.62  778.783
   8491.39  782.147
   8503.17  785.526
   8514.96  788.919
   8526.77  792.324
   8538.60  795.745
   8550.45  799.178
   8562.31  802.627
   8574.19  806.091
   8586.08  809.568
   8597.99  813.064
   8609.92  816.574
   8621.87  820.096
   8633.83  823.635
   8645.80  827.189
   8657.80  830.755
   8669.81  834.337
   8681.83  837.933
   8693.88  841.545
   8705.94  845.172
   8718.02  848.812
   8730.11  852.473
   8742.22  856.150
   8754.35  859.841
   8766.49  863.548
   8778.66  867.269
   8790.83  871.008
   8803.03  874.761
   8815.24  878.528
   8827.47  882.312
   8839.72  886.111
   8851.98  889.924
   8864.26  893.756
   8876.56  897.607
   8888.87  901.472
   8901.20  905.354
   8913.55  909.251
   8925.92  913.165
   8938.30  917.095
   8950.70  921.040
   8963.11  925.002
   8975.55  928.981
   8988.00  932.973
   9000.47  936.984
   9012.95  941.013
   9025.46  945.059
   9037.98  949.122
   9050.52  953.200
   9063.07  957.297
   9075.64  961.410
   9088.23  965.538
   9100.84  969.684
   9113.47  973.848
   9126.11  978.026
   9138.77  982.223
   9151.45  986.437
   9164.14  990.672
   9176.86  994.925
   9189.59  999.195
   9202.33  1003.48
   9215.10  1007.79
   9227.88  1012.11
   9240.69  1016.45
   9253.51  1020.81
   9266.34  1025.18
   9279.20  1029.57
   9292.07  1033.99
   9304.96  1038.41
   9317.87  1042.86
   9330.79  1047.33
   9343.74  1051.81
   9356.70  1056.32
   9369.68  1060.84
   9382.68  1065.38
   9395.70  1069.94
   9408.73  1074.51
   9421.78  1079.10
   9434.85  1083.71
   9447.94  1088.35
   9461.05  1093.00
   9474.17  1097.67
   9487.32  1102.37
   9500.48  1107.08
   9513.66  1111.81
   9526.85  1116.56
   9540.07  1121.32
   9553.31  1126.11
   9566.56  1130.92
   9579.83  1135.74
   9593.12  1140.58
   9606.43  1145.45
   9619.75  1150.34
   9633.10  1155.25
   9646.46  1160.18
   9659.84  1165.13
   9673.25  1170.10
   9686.67  1175.09
   9700.10  1180.10
   9713.56  1185.13
   9727.03  1190.18
   9740.53  1195.25
   9754.04  1200.34
   9767.57  1205.45
   9781.12  1210.58
   9794.69  1215.73
   9808.28  1220.90
   9821.89  1226.10
   9835.51  1231.31
   9849.16  1236.54
   9862.82  1241.80
   9876.50  1247.07
   9890.20  1252.36
   9903.92  1257.68
   9917.66  1263.02
   9931.42  1268.38
   9945.20  1273.77
   9958.99  1279.17
   9972.81  1284.60
   9986.64  1290.05
   10000.5  1295.52
   10014.4  1301.02
   10028.3  1306.54
   10042.2  1312.09
   10056.1  1317.65
   10070.1  1323.24
   10084.0  1328.85
   10098.0  1334.49
   10112.0  1340.14
   10126.1  1345.83
   10140.1  1351.53
   10154.2  1357.25
   10168.3  1363.00
   10182.4  1368.76
   10196.5  1374.56
   10210.6  1380.37
   10224.8  1386.20
   10239.0  1392.06
   10253.2  1397.95
   10267.4  1403.86
   10281.7  1409.80
   10295.9  1415.76
   10310.2  1421.74
   10324.5  1427.74
   10338.8  1433.77
   10353.2  1439.82
   10367.5  1445.89
   10381.9  1451.99
   10396.3  1458.11
   10410.7  1464.26
   10425.2  1470.43
   10439.6  1476.63
   10454.1  1482.85
   10468.6  1489.09
   10483.1  1495.36
   10497.7  1501.66
   10512.3  1507.97
   10526.8  1514.32
   10541.4  1520.68
   10556.1  1527.07
   10570.7  1533.48
   10585.4  1539.93
   10600.1  1546.40
   10614.8  1552.89
   10629.5  1559.41
   10644.2  1565.96
   10659.0  1572.53
   10673.8  1579.12
   10688.6  1585.74
   10703.4  1592.39
   10718.3  1599.06
   10733.1  1605.75
   10748.0  1612.47
   10762.9  1619.23
   10777.9  1626.00
   10792.8  1632.81
   10807.8  1639.64
   10822.8  1646.49
   10837.8  1653.37
   10852.8  1660.28
   10867.9  1667.21
   10883.0  1674.17
   10898.1  1681.15
   10913.2  1688.16
   10928.3  1695.20
   10943.5  1702.27
   10958.7  1709.37
   10973.9  1716.49
   10989.1  1723.64
   11004.3  1730.81
   11019.6  1738.02
   11034.9  1745.25
   11050.2  1752.50
   11065.5  1759.79
   11080.9  1767.09
   11096.2  1774.43
   11111.6  1781.80
   11127.1  1789.20
   11142.5  1796.63
   11157.9  1804.09
   11173.4  1811.57
   11188.9  1819.08
   11204.5  1826.62
   11220.0  1834.19
   11235.6  1841.78
   11251.1  1849.40
   11266.8  1857.05
   11282.4  1864.73
   11298.0  1872.44
   11313.7  1880.18
   11329.4  1887.95
   11345.1  1895.75
   11360.9  1903.57
   11376.6  1911.43
   11392.4  1919.31
   11408.2  1927.22
   11424.0  1935.16
   11439.9  1943.13
   11455.8  1951.12
   11471.6  1959.15
   11487.6  1967.22
   11503.5  1975.30
   11519.5  1983.43
   11535.4  1991.58
   11551.4  1999.75
   11567.5  2007.96
   11583.5  2016.20
   11599.6  2024.46
   11615.7  2032.76
   11631.8  2041.08
   11647.9  2049.44
   11664.1  2057.83
   11680.3  2066.25
   11696.5  2074.70
   11712.7  2083.19
   11728.9  2091.69
   11745.2  2100.24
   11761.5  2108.81
   11777.8  2117.41
   11794.2  2126.04
   11810.5  2134.70
   11826.9  2143.40
   11843.3  2152.13
   11859.7  2160.89
   11876.2  2169.69
   11892.7  2178.52
   11909.2  2187.37
   11925.7  2196.26
   11942.2  2205.17
   11958.8  2214.12
   11975.4  2223.10
   11992.0  2232.11
   12008.6  2241.15
   12025.3  2250.23
   12042.0  2259.33
   12058.7  2268.48
   12075.4  2277.65
   12092.2  2286.85
   12108.9  2296.09
   12125.7  2305.35
   12142.6  2314.65
   12159.4  2323.99
   12176.3  2333.35
   12193.2  2342.74
   12210.1  2352.17
   12227.0  2361.63
   12244.0  2371.14
   12261.0  2380.68
   12278.0  2390.24
   12295.0  2399.84
   12312.1  2409.47
   12329.1  2419.14
   12346.2  2428.84
   12363.4  2438.56
   12380.5  2448.32
   12397.7  2458.12
   12414.9  2467.95
   12432.1  2477.81
   12449.4  2487.71
   12466.6  2497.64
   12483.9  2507.61
   12501.2  2517.60
   12518.6  2527.64
   12536.0  2537.70
   12553.3  2547.79
   12570.8  2557.92
   12588.2  2568.09
   12605.7  2578.28
   12623.1  2588.52
   12640.7  2598.79
   12658.2  2609.09
   12675.8  2619.44
   12693.3  2629.81
   12711.0  2640.22
   12728.6  2650.66
   12746.2  2661.13
   12763.9  2671.64
   12781.6  2682.18
   12799.4  2692.75
   12817.1  2703.36
   12834.9  2714.01
   12852.7  2724.70
   12870.5  2735.42
   12888.4  2746.16
   12906.3  2756.95
   12924.2  2767.77
   12942.1  2778.62
   12960.1  2789.51
   12978.0  2800.44
   12996.0  2811.39
   13014.1  2822.38
   13032.1  2833.41
   13050.2  2844.48
   13068.3  2855.59
   13086.4  2866.73
   13104.6  2877.91
   13122.8  2889.13
   13141.0  2900.37
   13159.2  2911.65
   13177.5  2922.97
   13195.7  2934.32
   13214.0  2945.71
   13232.4  2957.12
   13250.7  2968.59
   13269.1  2980.08
   13287.5  2991.61
   13306.0  3003.18
   13324.4  3014.79
   13342.9  3026.42
   13361.4  3038.09
   13379.9  3049.80
   13398.5  3061.54
   13417.1  3073.32
   13435.7  3085.13
   13454.3  3096.98
   13473.0  3108.88
   13491.7  3120.80
   13510.4  3132.77
   13529.2  3144.77
   13547.9  3156.80
   13566.7  3168.87
   13585.5  3180.98
   13604.4  3193.12
   13623.3  3205.30
   13642.2  3217.50
   13661.1  3229.75
   13680.0  3242.04
   13699.0  3254.36
   13718.0  3266.72
   13737.0  3279.12
   13756.1  3291.55
   13775.2  3304.01
   13794.3  3316.51
   13813.4  3329.05
   13832.6  3341.62
   13851.8  3354.22
   13871.0  3366.87
   13890.2  3379.55
   13909.5  3392.27
   13928.8  3405.04
   13948.1  3417.84
   13967.5  3430.67
   13986.9  3443.54
   14006.3  3456.44
   14025.7  3469.38
   14045.1  3482.36
   14064.6  3495.37
   14084.1  3508.42
   14103.7  3521.50
   14123.2  3534.62
   14142.8  3547.78
   14162.5  3560.98
   14182.1  3574.21
   14201.8  3587.48
   14221.5  3600.78
   14241.2  3614.12
   14261.0  3627.49
   14280.8  3640.89
   14300.6  3654.34
   14320.4  3667.82
   14340.3  3681.33
   14360.2  3694.90
   14380.1  3708.50
   14400.0  3722.13
   14420.0  3735.80
   14440.0  3749.50
   14460.0  3763.24
   14480.1  3777.02
   14500.2  3790.82
   14520.3  3804.67
   14540.5  3818.55
   14560.6  3832.46
   14580.8  3846.42
   14601.0  3860.41
   14621.3  3874.42
   14641.6  3888.48
   14661.9  3902.57
   14682.2  3916.70
   14702.6  3930.87
   14723.0  3945.06
   14743.4  3959.29
   14763.9  3973.56
   14784.4  3987.86
   14804.9  4002.20
   14825.4  4016.58
   14846.0  4031.00
   14866.6  4045.45
   14887.2  4059.94
   14907.8  4074.46
   14928.5  4089.02
   14949.2  4103.61
   14970.0  4118.24
   14990.7  4132.90
   15011.5  4147.65
   15032.4  4162.48
   15053.2  4177.35
   15074.1  4192.26
   15095.0  4207.21
   15116.0  4222.19
   15136.9  4237.21
   15157.9  4252.27
   15178.9  4267.35
   15200.0  4282.48
   15221.1  4297.64
   15242.2  4312.83
   15263.4  4328.07
   15284.5  4343.33
   15305.7  4358.64
   15327.0  4373.99
   15348.2  4389.36
   15369.5  4404.78
   15390.8  4420.23
   15412.2  4435.71
   15433.6  4451.23
   15455.0  4466.79
   15476.4  4482.37
   15497.9  4498.00
   15519.4  4513.65
   15540.9  4529.35
   15562.5  4545.08
   15584.1  4560.85
   15605.7  4576.65
   15627.3  4592.49
   15649.0  4608.35
   15670.7  4624.26
   15692.5  4640.20
   15714.2  4656.17
   15736.0  4672.18
   15757.9  4688.21
   15779.7  4704.29
   15801.6  4720.40
   15823.5  4736.53
   15845.5  4752.71
   15867.5  4768.92
   15889.5  4785.16
   15911.5  4801.44
   15933.6  4817.74
   15955.7  4834.08
   15977.8  4850.46
   16000.0  4866.86
   16020.1  4881.77
   16040.3  4896.70
   16060.5  4911.67
   16080.7  4926.66
   16100.9  4941.67
   16121.1  4956.71
   16141.4  4971.78
   16161.7  4986.88
   16182.1  5001.99
   16202.4  5017.14
   16222.8  5032.32
   16243.2  5047.51
   16263.6  5062.74
   16284.1  5077.98
   16304.6  5093.27
   16325.1  5108.57
   16345.6  5123.90
   16366.2  5139.27
   16386.8  5154.66
   16407.4  5170.06
   16428.1  5185.50
   16448.7  5200.96
   16469.4  5216.45
   16490.1  5231.96
   16510.9  5247.50
   16531.6  5263.06
   16552.4  5278.64
   16573.3  5294.25
   16594.1  5309.89
   16615.0  5325.55
   16635.9  5341.23
   16656.8  5356.94
   16677.8  5372.67
   16698.8  5388.43
   16719.8  5404.21
   16740.8  5420.02
   16761.9  5435.84
   16782.9  5451.69
   16804.1  5467.57
   16825.2  5483.47
   16846.4  5499.39
   16867.6  5515.33
   16888.8  5531.30
   16910.0  5547.29
   16931.3  5563.30
   16952.6  5579.34
   16973.9  5595.39
   16995.3  5611.47
   17016.7  5627.58
   17038.1  5643.70
   17059.5  5659.85
   17081.0  5676.01
   17102.4  5692.21
   17124.0  5708.42
   17145.5  5724.65
   17167.1  5740.91
   17188.7  5757.19
   17210.3  5773.49
   17231.9  5789.80
   17253.6  5806.15
   17275.3  5822.51
   17297.1  5838.89
   17318.8  5855.30
   17340.6  5871.73
   17362.4  5888.17
   17384.3  5904.63
   17406.1  5921.11
   17428.0  5937.60
   17449.9  5954.12
   17471.9  5970.66
   17493.9  5987.21
   17515.9  6003.78
   17537.9  6020.37
   17560.0  6036.99
   17582.1  6053.62
   17604.2  6070.26
   17626.3  6086.94
   17648.5  6103.63
   17670.7  6120.33
   17692.9  6137.05
   17715.2  6153.81
   17737.5  6170.57
   17759.8  6187.35
   17782.1  6204.15
   17804.5  6220.97
   17826.9  6237.80
   17849.3  6254.65
   17871.8  6271.53
   17894.3  6288.41
   17916.8  6305.31
   17939.3  6322.24
   17961.9  6339.17
   17984.5  6356.11
   18007.1  6373.07
   18029.8  6390.04
   18052.5  6407.03
   18075.2  6424.03
   18097.9  6441.06
   18120.7  6458.09
   18143.5  6475.14
   18166.3  6492.20
   18189.1  6509.29
   18212.0  6526.39
   18234.9  6543.50
   18257.9  6560.62
   18280.8  6577.75
   18303.8  6594.90
   18326.9  6612.07
   18349.9  6629.24
   18373.0  6646.43
   18396.1  6663.62
   18419.3  6680.85
   18442.4  6698.08
   18465.6  6715.31
   18488.9  6732.57
   18512.1  6749.85
   18535.4  6767.13
   18558.7  6784.41
   18582.1  6801.71
   18605.5  6819.01
   18628.9  6836.33
   18652.3  6853.66
   18675.8  6871.02
   18699.3  6888.37
   18722.8  6905.73
   18746.3  6923.12
   18769.9  6940.51
   18793.5  6957.90
   18817.2  6975.32
   18840.8  6992.74
   18864.5  7010.15
   18888.3  7027.58
   18912.0  7045.02
   18935.8  7062.46
   18959.7  7079.91
   18983.5  7097.38
   19007.4  7114.85
   19031.3  7132.34
   19055.2  7149.83
   19079.2  7167.33
   19103.2  7184.84
   19127.2  7202.36
   19151.3  7219.88
   19175.4  7237.39
   19199.5  7254.91
   19223.7  7272.44
   19247.9  7289.98
   19272.1  7307.53
   19296.3  7325.08
   19320.6  7342.64
   19344.9  7360.21
   19369.2  7377.78
   19393.6  7395.35
   19418.0  7412.95
   19442.4  7430.54
   19466.9  7448.12
   19491.4  7465.70
   19515.9  7483.28
   19540.4  7500.87
   19565.0  7518.45
   19589.6  7536.06
   19614.3  7553.66
   19639.0  7571.26
   19663.7  7588.88
   19688.4  7606.50
   19713.2  7624.12
   19738.0  7641.75
   19762.8  7659.37
   19787.7  7675.17
   19812.6  7690.56
   19837.5  7705.96
   19862.4  7721.35
   19887.4  7736.74
   19912.4  7752.14
   19937.5  7767.54
   19962.6  7782.94
   19987.7  7798.33
   20012.8  7813.96
   20038.0  7829.80
   20063.2  7845.64
   20088.5  7861.64
   20113.7  7880.31
   20139.0  7898.99
   20164.4  7917.67
   20189.7  7936.37
   20215.1  7955.07
   20240.6  7973.77
   20266.0  7992.48
   20291.5  8011.19
   20317.0  8029.90
   20342.6  8048.62
   20368.2  8067.35
   20393.8  8086.08
   20419.5  8104.80
   20445.2  8123.53
   20470.9  8142.26
   20496.6  8160.98
   20522.4  8179.71
   20548.2  8198.45
   20574.1  8217.18
   20600.0  8235.92
   20625.9  8254.67
   20651.8  8273.41
   20677.8  8292.15
   20703.8  8310.89
   20729.9  8329.65
   20755.9  8348.38
   20782.1  8367.11
   20808.2  8385.84
   20834.4  8404.57
   20860.6  8423.30
   20886.8  8442.03
   20913.1  8460.76
   20939.4  8479.49
   20965.8  8498.21
   20992.1  8516.95
   21018.5  8535.68
   21045.0  8554.40
   21071.5  8573.13
   21098.0  8591.85
   21124.5  8610.55
   21151.1  8629.25
   21177.7  8647.96
   21204.3  8666.66
   21231.0  8685.36
   21257.7  8704.06
   21284.5  8722.75
   21311.2  8741.44
   21338.0  8760.12
   21364.9  8778.81
   21391.8  8797.49
   21418.7  8816.17
   21445.6  8834.83
   21472.6  8853.48
   21499.6  8872.12
   21526.7  8890.75
   21553.7  8909.40
   21580.9  8928.03
   21608.0  8946.65
   21635.2  8965.27
   21662.4  8983.90
   21689.7  9002.51
   21716.9  9021.11
   21744.3  9039.72
   21771.6  9058.30
   21799.0  9076.87
   21826.4  9095.44
   21853.9  9114.00
   21881.4  9132.55
   21908.9  9151.09
   21936.5  9169.64
   21964.1  9188.17
   21991.7  9206.69
   22019.4  9225.21
   22047.1  9243.72
   22074.8  9262.21
   22102.6  9280.70
   22130.4  9299.18
   22158.2  9317.63
   22186.1  9336.08
   22214.0  9354.52
   22241.9  9372.95
   22269.9  9391.36
   22297.9  9409.77
   22326.0  9428.18
   22354.1  9446.56
   22382.2  9464.94
   22410.4  9483.31
   22438.5  9501.67
   22466.8  9520.02
   22495.0  9538.34
   22523.3  9556.65
   22551.7  9574.94
   22580.0  9593.23
   22608.4  9611.51
   22636.9  9629.77
   22665.4  9648.01
   22693.9  9666.25
   22722.4  9684.48
   22751.0  9702.69
   22779.6  9720.89
   22808.3  9739.08
   22837.0  9757.25
   22865.7  9775.39
   22894.5  9793.53
   22923.3  9811.64
   22952.1  9829.74
   22981.0  9847.83
   23009.9  9865.91
   23038.8  9883.96
   23067.8  9902.01
   23096.8  9920.04
   23125.9  9938.06
   23155.0  9956.06
   23184.1  9974.04
   23213.3  9992.01
   23242.5  10009.9
   23271.7  10027.9
   23301.0  10045.8
   23330.3  10063.7
   23359.7  10081.5
   23389.1  10099.4
   23418.5  10117.2
   23447.9  10135.1
   23477.4  10152.9
   23507.0  10170.7
   23536.5  10188.4
   23566.2  10206.2
   23595.8  10223.9
   23625.5  10241.6
   23655.2  10259.3
   23685.0  10277.0
   23714.8  10294.6
   23744.6  10312.3
   23774.5  10329.9
   23804.4  10347.5
   23834.3  10365.1
   23864.3  10382.6
   23894.3  10400.1
   23924.4  10417.7
   23954.5  10435.2
   23984.6  10452.6
   24014.8  10470.1
   24045.0  10487.5
   24075.3  10504.9
   24105.5  10522.3
   24135.9  10539.7
   24166.2  10557.0
   24196.6  10574.3
   24227.1  10591.6
   24257.5  10608.9
   24288.1  10626.2
   24318.6  10643.4
   24349.2  10660.6
   24379.8  10677.8
   24410.5  10695.0
   24441.2  10712.1
   24472.0  10729.2
   24502.8  10746.3
   24533.6  10763.4
   24564.4  10780.4
   24595.3  10797.5
   24626.3  10814.5
   24657.3  10831.4
   24688.3  10848.4
   24719.3  10865.3
   24750.4  10882.2
   24781.6  10899.1
   24812.7  10916.0
   24844.0  10932.8
   24875.2  10949.6
   24906.5  10966.4
   24937.8  10983.1
   24969.2  10999.8
   25000.6  11016.6
   25032.1  11033.2
   25063.6  11049.9
   25095.1  11066.5
   25126.7  11083.1
   25158.3  11099.7
   25189.9  11116.2
   25221.6  11132.8
   25253.3  11149.3
   25285.1  11165.7
   25316.9  11182.2
   25348.8  11198.6
   25380.7  11215.0
   25412.6  11231.3
   25444.6  11247.7
   25476.6  11264.0
   25508.6  11280.3
   25540.7  11296.6
   25572.8  11312.8
   25605.0  11329.0
   25637.2  11345.1
   25669.5  11361.3
   25701.8  11377.4
   25734.1  11393.5
   25766.5  11409.5
   25798.9  11425.6
   25831.3  11441.6
   25863.8  11457.5
   25896.4  11473.5
   25929.0  11489.4
   25961.6  11505.3
   25994.2  11521.2
   26026.9  11537.0
   26059.7  11552.8
   26092.5  11568.6
   26125.3  11584.3
   26158.1  11600.0
   26191.1  11615.7
   26224.0  11631.4
   26257.0  11647.0
   26290.0  11662.6
   26323.1  11678.2
   26356.2  11693.7
   26389.4  11709.2
   26422.6  11724.7
   26455.8  11740.1
   26489.1  11755.5
   26522.4  11770.9
   26555.8  11786.3
   26589.2  11801.6
   26622.6  11816.9
   26656.1  11832.2
   26689.7  11847.4
   26723.2  11862.6
   26756.9  11877.8
   26790.5  11892.9
   26824.2  11908.0
   26858.0  11923.1
   26891.7  11938.1
   26925.6  11953.1
   26959.5  11968.1
   26993.4  11983.1
   27027.3  11998.0
   27061.3  12012.9
   27095.4  12027.7
   27129.5  12042.5
   27163.6  12057.3
   27197.8  12072.1
   27232.0  12086.8
   27266.2  12101.5
   27300.5  12116.2
   27334.9  12130.8
   27369.3  12145.4
   27403.7  12160.0
   27438.2  12174.5
   27472.7  12189.0
   27507.2  12203.5
   27541.8  12217.9
   27576.5  12232.3
   27611.2  12246.7
   27645.9  12261.0
   27680.7  12275.4
   27715.5  12289.6
   27750.4  12303.9
   27785.3  12318.1
   27820.3  12332.2
   27855.3  12346.4
   27890.3  12360.5
   27925.4  12374.6
   27960.5  12388.6
   27995.7  12402.6
   28030.9  12416.6
   28066.2  12430.5
   28101.5  12444.4
   28136.8  12458.3
   28172.2  12472.2
   28207.7  12486.0
   28243.2  12499.7
   28278.7  12513.5
   28314.3  12527.2
   28349.9  12540.9
   28385.5  12554.5
   28421.2  12568.1
   28457.0  12581.7
   28492.8  12595.2
   28528.6  12608.7
   28564.5  12622.2
   28600.5  12635.6
   28636.4  12649.0
   28672.5  12662.4
   28708.5  12675.7
   28744.7  12689.0
   28780.8  12702.3
   28817.0  12715.5
   28853.3  12728.7
   28889.6  12741.9
   28925.9  12755.0
   28962.3  12768.1
   28998.7  12781.2
   29035.2  12794.2
   29071.8  12807.2
   29108.3  12820.2
   29144.9  12833.1
   29181.6  12846.0
   29218.3  12858.8
   29255.1  12871.6
   29291.9  12884.4
   29328.7  12897.2
   29365.6  12909.9
   29402.6  12922.6
   29439.6  12935.2
   29476.6  12947.8
   29513.7  12960.4
   29550.8  12973.0
   29588.0  12985.5
   29625.2  12998.0
   29662.5  13010.4
   29699.8  13022.8
   29737.1  13035.2
   29774.6  13047.5
   29812.0  13059.8
   29849.5  13072.1
   29887.1  13084.3
   29924.7  13096.5
   29962.3  13108.7
   30000.0  13120.8
