# progression for http://henke.lbl.gov/optical_constants/atten2.html
# 100eV-500eV always in 500 steps, 500-1000eV, 1000-2000, 2000-4000, 4000-8000, 8000-16000, 16000-30000
# Si Density=2.33, Angle=90.deg
# Photon Energy (eV), Atten Length (microns)
   100.000  0.134288
   100.322  0.102227
   100.646  6.718048E-02
   100.970  5.639952E-02
   101.296  5.595573E-02
   101.622  6.139444E-02
   101.950  7.143288E-02
   102.279  7.798705E-02
   102.609  7.539479E-02
   102.939  8.077289E-02
   103.271  8.151667E-02
   103.604  8.850766E-02
   103.938  8.921823E-02
   104.273  9.122843E-02
   104.610  9.072325E-02
   104.947  8.981051E-02
   105.285  8.733296E-02
   105.625  8.261237E-02
   105.965  7.567302E-02
   106.307  7.312898E-02
   106.649  7.063267E-02
   106.993  6.852648E-02
   107.338  6.749663E-02
   107.684  6.606895E-02
   108.032  6.469481E-02
   108.380  6.370270E-02
   108.729  6.319283E-02
   109.080  6.296343E-02
   109.431  6.280847E-02
   109.784  6.187267E-02
   110.138  6.093416E-02
   110.493  5.993696E-02
   110.850  5.875200E-02
   111.207  5.768209E-02
   111.566  5.675231E-02
   111.925  5.607017E-02
   112.286  5.539611E-02
   112.648  5.479659E-02
   113.011  5.429853E-02
   113.376  5.380508E-02
   113.741  5.331603E-02
   114.108  5.271480E-02
   114.476  5.184378E-02
   114.845  5.091982E-02
   115.215  4.996042E-02
   115.587  4.897338E-02
   115.959  4.796535E-02
   116.333  4.697823E-02
   116.708  4.601143E-02
   117.084  4.511134E-02
   117.462  4.438900E-02
   117.841  4.375303E-02
   118.221  4.331914E-02
   118.602  4.297617E-02
   118.984  4.251028E-02
   119.368  4.248175E-02
   119.753  4.232070E-02
   120.139  4.208122E-02
   120.526  4.184315E-02
   120.915  4.160637E-02
   121.304  4.137098E-02
   121.695  4.117144E-02
   122.088  4.102958E-02
   122.481  4.096367E-02
   122.876  4.089788E-02
   123.272  4.083217E-02
   123.670  4.080648E-02
   124.069  4.080237E-02
   124.469  4.064468E-02
   124.870  4.071802E-02
   125.273  4.070268E-02
   125.676  4.063563E-02
   126.082  4.056865E-02
   126.488  4.050181E-02
   126.896  4.043505E-02
   127.305  4.040182E-02
   127.715  4.031382E-02
   128.127  4.016626E-02
   128.540  4.002161E-02
   128.955  3.989979E-02
   129.370  3.977830E-02
   129.788  3.957846E-02
   130.206  3.937885E-02
   130.626  3.921584E-02
   131.047  3.905348E-02
   131.469  3.889181E-02
   131.893  3.887184E-02
   132.319  3.886282E-02
   132.745  3.885383E-02
   133.173  3.893297E-02
   133.603  3.919476E-02
   134.033  3.962603E-02
   134.465  4.006200E-02
   134.899  4.062858E-02
   135.334  4.121422E-02
   135.770  4.180837E-02
   136.208  4.233047E-02
   136.647  4.274374E-02
   137.088  4.313345E-02
   137.530  4.359335E-02
   137.973  4.366654E-02
   138.418  4.373983E-02
   138.864  4.381326E-02
   139.312  4.388682E-02
   139.761  4.393059E-02
   140.212  4.389239E-02
   140.664  4.386439E-02
   141.117  4.397523E-02
   141.572  4.410685E-02
   142.028  4.433934E-02
   142.486  4.443732E-02
   142.946  4.462817E-02
   143.407  4.448664E-02
   143.869  4.430103E-02
   144.333  4.419945E-02
   144.798  4.413097E-02
   145.265  4.398350E-02
   145.733  4.390342E-02
   146.203  4.387958E-02
   146.675  4.381159E-02
   147.147  4.379500E-02
   147.622  4.375109E-02
   148.098  4.382136E-02
   148.575  4.382314E-02
   149.054  4.394875E-02
   149.535  4.408175E-02
   150.017  4.429621E-02
   150.501  4.425695E-02
   150.986  4.393509E-02
   151.473  4.341082E-02
   151.961  4.305986E-02
   152.451  4.306413E-02
   152.942  4.353448E-02
   153.436  4.405922E-02
   153.930  4.478470E-02
   154.427  4.555194E-02
   154.924  4.599195E-02
   155.424  4.619727E-02
   155.925  4.624871E-02
   156.428  4.608783E-02
   156.932  4.605293E-02
   157.438  4.604466E-02
   157.946  4.587434E-02
   158.455  4.545848E-02
   158.966  4.554385E-02
   159.478  4.545404E-02
   159.992  4.534813E-02
   160.508  4.513549E-02
   161.026  4.492219E-02
   161.545  4.470994E-02
   162.066  4.449865E-02
   162.588  4.429899E-02
   163.112  4.415213E-02
   163.638  4.402495E-02
   164.166  4.395176E-02
   164.695  4.393114E-02
   165.226  4.400054E-02
   165.759  4.404341E-02
   166.293  4.405808E-02
   166.829  4.426933E-02
   167.367  4.410898E-02
   167.907  4.406431E-02
   168.448  4.413268E-02
   168.991  4.420113E-02
   169.536  4.440998E-02
   170.083  4.464945E-02
   170.631  4.504487E-02
   171.181  4.544383E-02
   171.733  4.615242E-02
   172.287  4.681325E-02
   172.842  4.728906E-02
   173.399  4.764801E-02
   173.959  4.880078E-02
   174.519  4.940222E-02
   175.082  5.031563E-02
   175.646  5.092478E-02
   176.213  5.159627E-02
   176.781  5.226227E-02
   177.351  5.269020E-02
   177.923  5.303602E-02
   178.496  5.372939E-02
   179.072  5.408167E-02
   179.649  5.442432E-02
   180.228  5.439376E-02
   180.809  5.465825E-02
   181.392  5.492400E-02
   181.977  5.519107E-02
   182.564  5.545943E-02
   183.152  5.572908E-02
   183.743  5.600006E-02
   184.335  5.627236E-02
   184.930  5.654596E-02
   185.526  5.682090E-02
   186.124  5.709844E-02
   186.724  5.737895E-02
   187.326  5.766081E-02
   187.930  5.794408E-02
   188.536  5.822873E-02
   189.144  5.852054E-02
   189.754  5.882075E-02
   190.365  5.912248E-02
   190.979  5.942577E-02
   191.595  5.973059E-02
   192.213  6.003698E-02
   192.832  6.034489E-02
   193.454  6.065440E-02
   194.078  6.096546E-02
   194.703  6.127815E-02
   195.331  6.159244E-02
   195.961  6.190838E-02
   196.593  6.222595E-02
   197.227  6.254514E-02
   197.862  6.286598E-02
   198.500  6.318843E-02
   199.140  6.351256E-02
   199.782  6.383834E-02
   200.426  6.416581E-02
   201.073  6.449493E-02
   201.721  6.481686E-02
   202.371  6.513207E-02
   203.024  6.544883E-02
   203.678  6.576711E-02
   204.335  6.608699E-02
   204.994  6.640272E-02
   205.655  6.671505E-02
   206.318  6.702884E-02
   206.983  6.734408E-02
   207.650  6.766085E-02
   208.320  6.797908E-02
   208.991  6.829879E-02
   209.665  6.862000E-02
   210.341  6.894274E-02
   211.019  6.926698E-02
   211.700  6.959277E-02
   212.382  6.992009E-02
   213.067  7.024895E-02
   213.754  7.057938E-02
   214.443  7.091133E-02
   215.134  7.124487E-02
   215.828  7.157999E-02
   216.524  7.191665E-02
   217.222  7.225493E-02
   217.922  7.259478E-02
   218.625  7.294426E-02
   219.330  7.330088E-02
   220.037  7.365923E-02
   220.746  7.401936E-02
   221.458  7.438122E-02
   222.172  7.479034E-02
   222.888  7.523076E-02
   223.607  7.567380E-02
   224.328  7.611942E-02
   225.051  7.656772E-02
   225.777  7.701863E-02
   226.504  7.747224E-02
   227.235  7.792850E-02
   227.967  7.838748E-02
   228.702  7.884912E-02
   229.440  7.931354E-02
   230.179  7.978067E-02
   230.922  8.025055E-02
   231.666  8.072319E-02
   232.413  8.119860E-02
   233.162  8.167688E-02
   233.914  8.215789E-02
   234.668  8.264179E-02
   235.425  8.312847E-02
   236.184  8.361808E-02
   236.945  8.411050E-02
   237.709  8.460582E-02
   238.476  8.510402E-02
   239.244  8.560521E-02
   240.016  8.610930E-02
   240.790  8.661640E-02
   241.566  8.712652E-02
   242.345  8.763964E-02
   243.126  8.815574E-02
   243.910  8.867493E-02
   244.696  8.919720E-02
   245.485  8.972257E-02
   246.277  9.025098E-02
   247.071  9.078252E-02
   247.867  9.131722E-02
   248.666  9.188478E-02
   249.468  9.246757E-02
   250.272  9.305403E-02
   251.079  9.364424E-02
   251.889  9.423815E-02
   252.701  9.484100E-02
   253.516  9.544947E-02
   254.333  9.606191E-02
   255.153  9.667819E-02
   255.976  9.729853E-02
   256.801  9.792282E-02
   257.629  9.855114E-02
   258.459  9.918357E-02
   259.293  9.982002E-02
   260.129  0.100461
   260.967  0.101105
   261.809  0.101754
   262.653  0.102407
   263.500  0.103064
   264.349  0.103725
   265.201  0.104391
   266.056  0.105060
   266.914  0.105735
   267.775  0.106413
   268.638  0.107096
   269.504  0.107783
   270.373  0.108475
   271.245  0.109171
   272.119  0.109871
   272.997  0.110576
   273.877  0.111286
   274.760  0.112000
   275.646  0.112718
   276.534  0.113442
   277.426  0.114170
   278.320  0.114902
   279.218  0.115639
   280.118  0.116381
   281.021  0.117128
   281.927  0.117880
   282.836  0.118636
   283.748  0.119397
   284.663  0.120163
   285.580  0.120934
   286.501  0.121710
   287.425  0.122491
   288.352  0.123277
   289.281  0.124068
   290.214  0.124864
   291.150  0.125665
   292.088  0.126472
   293.030  0.127283
   293.975  0.128100
   294.922  0.128922
   295.873  0.129749
   296.827  0.130602
   297.784  0.131463
   298.744  0.132330
   299.707  0.133202
   300.674  0.134080
   301.643  0.134982
   302.616  0.135891
   303.591  0.136806
   304.570  0.137727
   305.552  0.138655
   306.537  0.139589
   307.525  0.140529
   308.517  0.141476
   309.512  0.142428
   310.509  0.143388
   311.511  0.144354
   312.515  0.145326
   313.522  0.146305
   314.533  0.147290
   315.547  0.148282
   316.565  0.149281
   317.585  0.150286
   318.609  0.151298
   319.636  0.152318
   320.667  0.153343
   321.701  0.154376
   322.738  0.155416
   323.779  0.156462
   324.822  0.157516
   325.870  0.158577
   326.920  0.159645
   327.974  0.160720
   329.032  0.161803
   330.093  0.162893
   331.157  0.163990
   332.224  0.165094
   333.296  0.166206
   334.370  0.167326
   335.448  0.168453
   336.530  0.169587
   337.615  0.170729
   338.703  0.171879
   339.795  0.173037
   340.891  0.174202
   341.990  0.175376
   343.092  0.176557
   344.198  0.177746
   345.308  0.178943
   346.421  0.180148
   347.538  0.181362
   348.659  0.182583
   349.783  0.183813
   350.911  0.185051
   352.042  0.186297
   353.177  0.187552
   354.316  0.188815
   355.458  0.190087
   356.604  0.191367
   357.754  0.192656
   358.907  0.193954
   360.064  0.195260
   361.225  0.196575
   362.390  0.197899
   363.558  0.199232
   364.730  0.200588
   365.906  0.202098
   367.086  0.203619
   368.269  0.205152
   369.457  0.206696
   370.648  0.208257
   371.843  0.209868
   373.042  0.211492
   374.244  0.213129
   375.451  0.214778
   376.662  0.216440
   377.876  0.218115
   379.094  0.219803
   380.316  0.221503
   381.543  0.223217
   382.773  0.224945
   384.007  0.226685
   385.245  0.228439
   386.487  0.230207
   387.733  0.231988
   388.983  0.233783
   390.237  0.235592
   391.495  0.237416
   392.758  0.239253
   394.024  0.241104
   395.294  0.242970
   396.569  0.244850
   397.847  0.246745
   399.130  0.248655
   400.417  0.250579
   401.708  0.252518
   403.003  0.254472
   404.302  0.256441
   405.606  0.258426
   406.913  0.260426
   408.225  0.262441
   409.541  0.264472
   410.862  0.266518
   412.186  0.268581
   413.515  0.270659
   414.848  0.272753
   416.186  0.274864
   417.528  0.276991
   418.874  0.279135
   420.224  0.281295
   421.579  0.283472
   422.938  0.285665
   424.302  0.287876
   425.670  0.290103
   427.042  0.292348
   428.419  0.294611
   429.800  0.296890
   431.186  0.299188
   432.576  0.301503
   433.971  0.303836
   435.370  0.306187
   436.774  0.308556
   438.182  0.310944
   439.595  0.313350
   441.012  0.315775
   442.434  0.318219
   443.860  0.320681
   445.291  0.323163
   446.727  0.325663
   448.167  0.328184
   449.612  0.330723
   451.062  0.333283
   452.516  0.335861
   453.975  0.338461
   455.438  0.341080
   456.907  0.343727
   458.380  0.346412
   459.858  0.349118
   461.340  0.351846
   462.828  0.354594
   464.320  0.357398
   465.817  0.360297
   467.319  0.363219
   468.825  0.366165
   470.337  0.369134
   471.853  0.372128
   473.375  0.375146
   474.901  0.378188
   476.432  0.381255
   477.968  0.384347
   479.509  0.387464
   481.055  0.390606
   482.606  0.393774
   484.162  0.396968
   485.723  0.400187
   487.289  0.403433
   488.860  0.406704
   490.436  0.410002
   492.017  0.413327
   493.603  0.416679
   495.195  0.420058
   496.791  0.423465
   498.393  0.426899
   500.000  0.430361
   500.694  0.431861
   501.388  0.433366
   502.084  0.434876
   502.780  0.436392
   503.478  0.437912
   504.176  0.439439
   504.876  0.440970
   505.576  0.442507
   506.277  0.444049
   506.980  0.445597
   507.683  0.447149
   508.387  0.448708
   509.093  0.450271
   509.799  0.451841
   510.506  0.453415
   511.214  0.454995
   511.923  0.456580
   512.634  0.458172
   513.345  0.459768
   514.057  0.461370
   514.770  0.462977
   515.484  0.464591
   516.199  0.466209
   516.915  0.467834
   517.632  0.469464
   518.351  0.471100
   519.070  0.472741
   519.790  0.474389
   520.511  0.476042
   521.233  0.477701
   521.956  0.479365
   522.680  0.481036
   523.405  0.482713
   524.131  0.484395
   524.858  0.486083
   525.586  0.487777
   526.316  0.489477
   527.046  0.491182
   527.777  0.492894
   528.509  0.494612
   529.242  0.496335
   529.976  0.498065
   530.712  0.499800
   531.448  0.501542
   532.185  0.503290
   532.923  0.505043
   533.663  0.506803
   534.403  0.508569
   535.144  0.510341
   535.887  0.512120
   536.630  0.513905
   537.375  0.515695
   538.120  0.517492
   538.867  0.519296
   539.614  0.521105
   540.363  0.522921
   541.112  0.524743
   541.863  0.526572
   542.615  0.528407
   543.367  0.530248
   544.121  0.532096
   544.876  0.533950
   545.632  0.535811
   546.389  0.537678
   547.147  0.539552
   547.906  0.541432
   548.666  0.543319
   549.427  0.545212
   550.189  0.547113
   550.953  0.549019
   551.717  0.550932
   552.482  0.552852
   553.249  0.554778
   554.016  0.556712
   554.785  0.558652
   555.554  0.560598
   556.325  0.562552
   557.097  0.564512
   557.870  0.566479
   558.644  0.568453
   559.419  0.570435
   560.195  0.572422
   560.972  0.574417
   561.750  0.576419
   562.529  0.578428
   563.310  0.580443
   564.091  0.582466
   564.874  0.584496
   565.657  0.586533
   566.442  0.588576
   567.228  0.590627
   568.015  0.592686
   568.803  0.594751
   569.592  0.596824
   570.382  0.598903
   571.173  0.600991
   571.966  0.603085
   572.759  0.605186
   573.554  0.607295
   574.349  0.609412
   575.146  0.611535
   575.944  0.613666
   576.743  0.615805
   577.543  0.617950
   578.344  0.620104
   579.146  0.622265
   579.950  0.624433
   580.754  0.626618
   581.560  0.628882
   582.367  0.631155
   583.175  0.633436
   583.984  0.635725
   584.794  0.638022
   585.605  0.640328
   586.417  0.642642
   587.231  0.644964
   588.046  0.647295
   588.861  0.649634
   589.678  0.651982
   590.496  0.654367
   591.315  0.656785
   592.136  0.659213
   592.957  0.661649
   593.780  0.664094
   594.604  0.666549
   595.428  0.669012
   596.254  0.671485
   597.082  0.673966
   597.910  0.676457
   598.739  0.678957
   599.570  0.681466
   600.402  0.683985
   601.235  0.686513
   602.069  0.689051
   602.904  0.691597
   603.740  0.694154
   604.578  0.696719
   605.417  0.699294
   606.256  0.701878
   607.097  0.704473
   607.940  0.707077
   608.783  0.709690
   609.628  0.712313
   610.473  0.714946
   611.320  0.717588
   612.168  0.720240
   613.017  0.722902
   613.868  0.725574
   614.719  0.728256
   615.572  0.730947
   616.426  0.733649
   617.281  0.736360
   618.138  0.739082
   618.995  0.741813
   619.854  0.744555
   620.714  0.747307
   621.575  0.750069
   622.437  0.752841
   623.301  0.755623
   624.165  0.758416
   625.031  0.761218
   625.898  0.764032
   626.767  0.766856
   627.636  0.769690
   628.507  0.772534
   629.379  0.775390
   630.252  0.778256
   631.126  0.781132
   632.002  0.784019
   632.878  0.786917
   633.756  0.789826
   634.635  0.792745
   635.516  0.795675
   636.397  0.798616
   637.280  0.801568
   638.164  0.804530
   639.050  0.807504
   639.936  0.810488
   640.824  0.813483
   641.713  0.816489
   642.603  0.819507
   643.495  0.822536
   644.387  0.825576
   645.281  0.828627
   646.176  0.831689
   647.073  0.834762
   647.970  0.837847
   648.869  0.840944
   649.770  0.844052
   650.671  0.847171
   651.574  0.850302
   652.477  0.853445
   653.383  0.856599
   654.289  0.859765
   655.197  0.862943
   656.106  0.866133
   657.016  0.869334
   657.927  0.872546
   658.840  0.875772
   659.754  0.879008
   660.669  0.882257
   661.586  0.885518
   662.504  0.888792
   663.423  0.892077
   664.343  0.895374
   665.265  0.898683
   666.187  0.902005
   667.112  0.905339
   668.037  0.908685
   668.964  0.912044
   669.892  0.915415
   670.821  0.918798
   671.752  0.922194
   672.684  0.925602
   673.617  0.929022
   674.551  0.932456
   675.487  0.935901
   676.424  0.939360
   677.362  0.942832
   678.302  0.946316
   679.243  0.949813
   680.185  0.953323
   681.129  0.956846
   682.074  0.960382
   683.020  0.963932
   683.968  0.967495
   684.917  0.971070
   685.867  0.974659
   686.818  0.978262
   687.771  0.981877
   688.725  0.985506
   689.680  0.989149
   690.637  0.992804
   691.595  0.996473
   692.555  1.00016
   693.516  1.00373
   694.478  1.00728
   695.441  1.01085
   696.406  1.01443
   697.372  1.01802
   698.339  1.02163
   699.308  1.02524
   700.278  1.02887
   701.250  1.03252
   702.222  1.03617
   703.197  1.03984
   704.172  1.04350
   705.149  1.04712
   706.127  1.05074
   707.107  1.05438
   708.088  1.05804
   709.070  1.06170
   710.054  1.06538
   711.039  1.06907
   712.025  1.07277
   713.013  1.07648
   714.002  1.08021
   714.992  1.08395
   715.984  1.08771
   716.978  1.09147
   717.972  1.09526
   718.968  1.09905
   719.966  1.10286
   720.964  1.10668
   721.965  1.11051
   722.966  1.11436
   723.969  1.11822
   724.973  1.12209
   725.979  1.12598
   726.986  1.12988
   727.995  1.13379
   729.005  1.13771
   730.016  1.14166
   731.029  1.14561
   732.043  1.14958
   733.058  1.15356
   734.075  1.15755
   735.094  1.16156
   736.113  1.16558
   737.135  1.16962
   738.157  1.17367
   739.181  1.17774
   740.207  1.18181
   741.234  1.18591
   742.262  1.19002
   743.292  1.19414
   744.323  1.19827
   745.355  1.20242
   746.389  1.20659
   747.425  1.21077
   748.461  1.21496
   749.500  1.21917
   750.540  1.22339
   751.581  1.22763
   752.623  1.23188
   753.667  1.23615
   754.713  1.24043
   755.760  1.24472
   756.808  1.24904
   757.858  1.25336
   758.910  1.25770
   759.962  1.26206
   761.017  1.26643
   762.072  1.27082
   763.130  1.27522
   764.188  1.27964
   765.248  1.28407
   766.310  1.28852
   767.373  1.29298
   768.438  1.29746
   769.504  1.30195
   770.571  1.30646
   771.640  1.31099
   772.711  1.31553
   773.782  1.32008
   774.856  1.32466
   775.931  1.32924
   777.007  1.33385
   778.085  1.33847
   779.165  1.34310
   780.245  1.34775
   781.328  1.35242
   782.412  1.35711
   783.497  1.36181
   784.584  1.36652
   785.673  1.37125
   786.762  1.37600
   787.854  1.38079
   788.947  1.38567
   790.041  1.39058
   791.137  1.39549
   792.235  1.40043
   793.334  1.40539
   794.434  1.41036
   795.536  1.41534
   796.640  1.42035
   797.745  1.42538
   798.852  1.43042
   799.960  1.43548
   801.070  1.44073
   802.181  1.44610
   803.294  1.45149
   804.408  1.45690
   805.524  1.46233
   806.642  1.46778
   807.761  1.47325
   808.881  1.47875
   810.003  1.48426
   811.127  1.48979
   812.252  1.49534
   813.379  1.50092
   814.508  1.50651
   815.638  1.51213
   816.769  1.51776
   817.902  1.52342
   819.037  1.52910
   820.173  1.53480
   821.311  1.54052
   822.450  1.54626
   823.591  1.55202
   824.734  1.55781
   825.878  1.56362
   827.023  1.56944
   828.171  1.57530
   829.320  1.58117
   830.470  1.58706
   831.622  1.59298
   832.776  1.59892
   833.931  1.60488
   835.088  1.61086
   836.246  1.61687
   837.406  1.62290
   838.568  1.62895
   839.732  1.63502
   840.896  1.64111
   842.063  1.64723
   843.231  1.65337
   844.401  1.65954
   845.572  1.66572
   846.745  1.67193
   847.920  1.67816
   849.096  1.68442
   850.274  1.69070
   851.454  1.69700
   852.635  1.70332
   853.818  1.70967
   855.002  1.71605
   856.188  1.72244
   857.376  1.72886
   858.565  1.73531
   859.756  1.74178
   860.949  1.74827
   862.144  1.75479
   863.340  1.76133
   864.537  1.76789
   865.737  1.77448
   866.938  1.78110
   868.140  1.78773
   869.345  1.79440
   870.551  1.80109
   871.758  1.80780
   872.968  1.81454
   874.179  1.82131
   875.391  1.82810
   876.606  1.83491
   877.822  1.84175
   879.040  1.84862
   880.259  1.85551
   881.480  1.86242
   882.703  1.86937
   883.928  1.87634
   885.154  1.88333
   886.382  1.89035
   887.611  1.89740
   888.843  1.90447
   890.076  1.91157
   891.310  1.91870
   892.547  1.92585
   893.785  1.93303
   895.025  1.94024
   896.267  1.94772
   897.510  1.95538
   898.755  1.96307
   900.002  1.97080
   901.250  1.97855
   902.501  1.98633
   903.753  1.99415
   905.006  2.00199
   906.262  2.00987
   907.519  2.01778
   908.778  2.02571
   910.039  2.03369
   911.301  2.04194
   912.565  2.05022
   913.831  2.05854
   915.099  2.06689
   916.369  2.07527
   917.640  2.08369
   918.913  2.09214
   920.188  2.10062
   921.464  2.10914
   922.742  2.11769
   924.023  2.12628
   925.304  2.13491
   926.588  2.14356
   927.873  2.15226
   929.161  2.16099
   930.450  2.16975
   931.740  2.17855
   933.033  2.18738
   934.327  2.19626
   935.623  2.20516
   936.921  2.21410
   938.221  2.22308
   939.523  2.23210
   940.826  2.24115
   942.131  2.25024
   943.438  2.25936
   944.747  2.26853
   946.058  2.27773
   947.370  2.28697
   948.684  2.29624
   950.000  2.30555
   951.318  2.31490
   952.638  2.32429
   953.960  2.33372
   955.283  2.34318
   956.608  2.35268
   957.935  2.36223
   959.264  2.37181
   960.595  2.38143
   961.927  2.39108
   963.262  2.40078
   964.598  2.41052
   965.936  2.42029
   967.276  2.43011
   968.618  2.43996
   969.962  2.44986
   971.307  2.45979
   972.655  2.46977
   974.004  2.47979
   975.355  2.48985
   976.709  2.49995
   978.063  2.51009
   979.420  2.52027
   980.779  2.53049
   982.140  2.54076
   983.502  2.55106
   984.866  2.56141
   986.233  2.57180
   987.601  2.58224
   988.971  2.59272
   990.343  2.60325
   991.717  2.61381
   993.093  2.62443
   994.470  2.63508
   995.850  2.64578
   997.231  2.65652
   998.615  2.66730
   1000.00  2.67813
   1001.39  2.68900
   1002.78  2.69992
   1004.17  2.71090
   1005.56  2.72191
   1006.96  2.73297
   1008.35  2.74408
   1009.75  2.75523
   1011.15  2.76643
   1012.55  2.77767
   1013.96  2.78896
   1015.37  2.80030
   1016.77  2.81168
   1018.19  2.82310
   1019.60  2.83458
   1021.01  2.84611
   1022.43  2.85768
   1023.85  2.86930
   1025.27  2.88096
   1026.69  2.89268
   1028.11  2.90444
   1029.54  2.91625
   1030.97  2.92811
   1032.40  2.94001
   1033.83  2.95196
   1035.26  2.96396
   1036.70  2.97601
   1038.14  2.98810
   1039.58  3.00025
   1041.02  3.01244
   1042.47  3.02469
   1043.91  3.03698
   1045.36  3.04932
   1046.81  3.06172
   1048.26  3.07416
   1049.72  3.08665
   1051.17  3.09920
   1052.63  3.11180
   1054.09  3.12445
   1055.55  3.13715
   1057.02  3.14991
   1058.48  3.16271
   1059.95  3.17557
   1061.42  3.18848
   1062.90  3.20145
   1064.37  3.21446
   1065.85  3.22753
   1067.33  3.24065
   1068.81  3.25383
   1070.29  3.26706
   1071.77  3.28034
   1073.26  3.29367
   1074.75  3.30706
   1076.24  3.32050
   1077.73  3.33400
   1079.23  3.34755
   1080.73  3.36116
   1082.22  3.37482
   1083.73  3.38854
   1085.23  3.40232
   1086.73  3.41558
   1088.24  3.42869
   1089.75  3.44186
   1091.26  3.45507
   1092.78  3.46833
   1094.29  3.48165
   1095.81  3.49502
   1097.33  3.50843
   1098.85  3.52190
   1100.38  3.53542
   1101.91  3.54900
   1103.43  3.56253
   1104.96  3.57562
   1106.50  3.58877
   1108.03  3.60196
   1109.57  3.61520
   1111.11  3.62849
   1112.65  3.64183
   1114.19  3.65521
   1115.74  3.66865
   1117.29  3.68213
   1118.84  3.69567
   1120.39  3.70926
   1121.94  3.72290
   1123.50  3.73660
   1125.06  3.75035
   1126.62  3.76415
   1128.18  3.77800
   1129.75  3.79191
   1131.31  3.80586
   1132.88  3.81986
   1134.46  3.83392
   1136.03  3.84803
   1137.61  3.86219
   1139.18  3.87640
   1140.76  3.89067
   1142.35  3.90499
   1143.93  3.91936
   1145.52  3.93379
   1147.11  3.94827
   1148.70  3.96280
   1150.29  3.97739
   1151.89  3.99203
   1153.49  4.00672
   1155.09  4.02147
   1156.69  4.03627
   1158.29  4.05113
   1159.90  4.06604
   1161.51  4.08100
   1163.12  4.09602
   1164.73  4.11109
   1166.35  4.12622
   1167.97  4.14141
   1169.59  4.15665
   1171.21  4.17195
   1172.83  4.18730
   1174.46  4.20271
   1176.09  4.21818
   1177.72  4.23371
   1179.36  4.24930
   1180.99  4.26494
   1182.63  4.28065
   1184.27  4.29641
   1185.91  4.31223
   1187.56  4.32811
   1189.21  4.34405
   1190.86  4.36004
   1192.51  4.37610
   1194.16  4.39221
   1195.82  4.40839
   1197.48  4.42466
   1199.14  4.44098
   1200.80  4.45737
   1202.47  4.47381
   1204.14  4.49032
   1205.81  4.50689
   1207.48  4.52352
   1209.16  4.54021
   1210.83  4.55696
   1212.51  4.57377
   1214.19  4.59065
   1215.88  4.60760
   1217.57  4.62462
   1219.26  4.64171
   1220.95  4.65886
   1222.64  4.67607
   1224.34  4.69335
   1226.03  4.71069
   1227.74  4.72809
   1229.44  4.74556
   1231.14  4.76309
   1232.85  4.78069
   1234.56  4.79835
   1236.28  4.81608
   1237.99  4.83387
   1239.71  4.85173
   1241.43  4.86966
   1243.15  4.88765
   1244.87  4.90571
   1246.60  4.92384
   1248.33  4.94203
   1250.06  4.96029
   1251.80  4.97862
   1253.53  4.99702
   1255.27  5.01547
   1257.01  5.03400
   1258.76  5.05260
   1260.50  5.07126
   1262.25  5.08999
   1264.00  5.10879
   1265.76  5.12767
   1267.51  5.14661
   1269.27  5.16562
   1271.03  5.18470
   1272.79  5.20385
   1274.56  5.22307
   1276.33  5.24237
   1278.10  5.26174
   1279.87  5.28118
   1281.65  5.30069
   1283.43  5.32028
   1285.21  5.33994
   1286.99  5.35966
   1288.77  5.37947
   1290.56  5.39934
   1292.35  5.41929
   1294.15  5.43931
   1295.94  5.45946
   1297.74  5.47976
   1299.54  5.50013
   1301.34  5.52057
   1303.15  5.54109
   1304.95  5.56169
   1306.77  5.58236
   1308.58  5.60312
   1310.39  5.62395
   1312.21  5.64485
   1314.03  5.66583
   1315.85  5.68689
   1317.68  5.70804
   1319.51  5.72927
   1321.34  5.75057
   1323.17  5.77196
   1325.01  5.79342
   1326.85  5.81496
   1328.69  5.83659
   1330.53  5.85829
   1332.37  5.88008
   1334.22  5.90194
   1336.07  5.92389
   1337.93  5.94593
   1339.78  5.96805
   1341.64  5.99026
   1343.50  6.01255
   1345.37  6.03493
   1347.23  6.05739
   1349.10  6.07993
   1350.97  6.10256
   1352.85  6.12527
   1354.72  6.14807
   1356.60  6.17095
   1358.49  6.19391
   1360.37  6.21696
   1362.26  6.24008
   1364.15  6.26330
   1366.04  6.28660
   1367.94  6.30998
   1369.83  6.33346
   1371.73  6.35702
   1373.64  6.38067
   1375.54  6.40440
   1377.45  6.42823
   1379.36  6.45214
   1381.27  6.47615
   1383.19  6.50031
   1385.11  6.52455
   1387.03  6.54889
   1388.96  6.57332
   1390.88  6.59784
   1392.81  6.62245
   1394.74  6.64715
   1396.68  6.67195
   1398.62  6.69683
   1400.56  6.72181
   1402.50  6.74689
   1404.44  6.77208
   1406.39  6.79739
   1408.34  6.82279
   1410.30  6.84829
   1412.25  6.87388
   1414.21  6.89957
   1416.18  6.92536
   1418.14  6.95124
   1420.11  6.97721
   1422.08  7.00329
   1424.05  7.02947
   1426.03  7.05573
   1428.00  7.08214
   1429.98  7.10865
   1431.97  7.13526
   1433.96  7.16196
   1435.94  7.18877
   1437.94  7.21568
   1439.93  7.24269
   1441.93  7.26979
   1443.93  7.29700
   1445.93  7.32432
   1447.94  7.35173
   1449.95  7.37925
   1451.96  7.40687
   1453.97  7.43460
   1455.99  7.46242
   1458.01  7.49035
   1460.03  7.51839
   1462.06  7.54654
   1464.09  7.57478
   1466.12  7.60313
   1468.15  7.63160
   1470.19  7.66016
   1472.23  7.68883
   1474.27  7.71762
   1476.31  7.74654
   1478.36  7.77555
   1480.41  7.80467
   1482.47  7.83391
   1484.52  7.86325
   1486.58  7.89270
   1488.65  7.92226
   1490.71  7.95193
   1492.78  7.98172
   1494.85  8.01161
   1496.92  8.04185
   1499.00  8.07288
   1501.08  8.10402
   1503.16  8.13528
   1505.25  8.16667
   1507.33  8.19818
   1509.43  8.22980
   1511.52  8.26155
   1513.62  8.29343
   1515.72  8.32542
   1517.82  8.35754
   1519.92  8.38978
   1522.03  8.42220
   1524.14  8.45476
   1526.26  8.48745
   1528.38  8.52027
   1530.50  8.55322
   1532.62  8.58628
   1534.75  8.61948
   1536.88  8.65281
   1539.01  8.68627
   1541.14  8.71985
   1543.28  8.75356
   1545.42  8.78742
   1547.56  8.82146
   1549.71  8.85563
   1551.86  8.88993
   1554.01  8.92437
   1556.17  8.95894
   1558.33  8.99364
   1560.49  9.02849
   1562.66  9.06346
   1564.82  9.09856
   1566.99  9.13381
   1569.17  9.16919
   1571.35  9.20470
   1573.52  9.24033
   1575.71  9.27611
   1577.89  9.31203
   1580.08  9.34808
   1582.27  9.38427
   1584.47  9.42060
   1586.67  9.45708
   1588.87  9.49369
   1591.07  9.53044
   1593.28  9.56735
   1595.49  9.60439
   1597.70  9.64158
   1599.92  9.67892
   1602.14  9.71640
   1604.36  9.75403
   1606.59  9.79180
   1608.82  9.82971
   1611.05  9.86779
   1613.28  9.90600
   1615.52  9.94436
   1617.76  9.98287
   1620.01  10.0215
   1622.25  10.0603
   1624.50  10.0993
   1626.76  10.1384
   1629.02  10.1777
   1631.28  10.2171
   1633.54  10.2567
   1635.80  10.2965
   1638.07  10.3363
   1640.35  10.3764
   1642.62  10.4166
   1644.90  10.4569
   1647.18  10.4974
   1649.47  10.5381
   1651.76  10.5789
   1654.05  10.6199
   1656.34  10.6610
   1658.64  10.7023
   1660.94  10.7438
   1663.24  10.7854
   1665.55  10.8272
   1667.86  10.8691
   1670.18  10.9112
   1672.49  10.9535
   1674.81  10.9959
   1677.14  11.0385
   1679.46  11.0812
   1681.79  11.1241
   1684.13  11.1672
   1686.46  11.2105
   1688.80  11.2539
   1691.14  11.2975
   1693.49  11.3412
   1695.84  11.3851
   1698.19  11.4292
   1700.55  11.4735
   1702.91  11.5179
   1705.27  11.5625
   1707.64  11.6073
   1710.00  11.6523
   1712.38  11.6974
   1714.75  11.7427
   1717.13  11.7882
   1719.51  11.8338
   1721.90  11.8796
   1724.29  11.9256
   1726.68  11.9718
   1729.07  12.0183
   1731.47  12.0662
   1733.88  12.1143
   1736.28  12.1626
   1738.69  12.2111
   1741.10  12.2598
   1743.52  12.3087
   1745.94  12.3577
   1748.36  12.4070
   1750.78  12.4565
   1753.21  12.5061
   1755.64  12.5560
   1758.08  12.6062
   1760.52  12.6568
   1762.96  12.7075
   1765.41  12.7585
   1767.86  12.8096
   1770.31  12.8610
   1772.76  12.9125
   1775.22  12.9643
   1777.69  13.0163
   1780.15  13.0685
   1782.62  13.1209
   1785.09  13.1735
   1787.57  13.2266
   1790.05  13.2799
   1792.53  13.3334
   1795.02  13.3872
   1797.51  13.4411
   1800.00  13.4953
   1802.50  13.5497
   1805.00  13.6044
   1807.51  13.6592
   1810.01  13.7143
   1812.52  13.7696
   1815.04  13.8251
   1817.56  13.8808
   1820.08  13.9368
   1822.60  13.9929
   1825.13  14.0493
   1827.66  14.1060
   1830.20  14.1629
   1832.74  14.2199
   1835.28  14.2773
   1837.83  14.3348
   1840.38  1.26935
   1842.93  1.27357
   1845.48  1.27780
   1848.05  1.28204
   1850.61  1.28630
   1853.18  1.29057
   1855.75  1.29486
   1858.32  1.29916
   1860.90  1.30348
   1863.48  1.30781
   1866.07  1.31215
   1868.65  1.31651
   1871.25  1.32088
   1873.84  1.32527
   1876.44  1.32967
   1879.05  1.33409
   1881.65  1.33852
   1884.26  1.34296
   1886.88  1.34743
   1889.49  1.35190
   1892.12  1.35639
   1894.74  1.36090
   1897.37  1.36542
   1900.00  1.36996
   1902.64  1.37451
   1905.28  1.37908
   1907.92  1.38366
   1910.57  1.38826
   1913.22  1.39287
   1915.87  1.39750
   1918.53  1.40214
   1921.19  1.40680
   1923.85  1.41147
   1926.52  1.41617
   1929.20  1.42087
   1931.87  1.42559
   1934.55  1.43033
   1937.24  1.43509
   1939.92  1.43986
   1942.61  1.44464
   1945.31  1.44944
   1948.01  1.45426
   1950.71  1.45909
   1953.42  1.46394
   1956.13  1.46881
   1958.84  1.47369
   1961.56  1.47859
   1964.28  1.48350
   1967.00  1.48843
   1969.73  1.49338
   1972.47  1.49834
   1975.20  1.50332
   1977.94  1.50832
   1980.69  1.51333
   1983.43  1.51836
   1986.19  1.52343
   1988.94  1.52851
   1991.70  1.53361
   1994.46  1.53873
   1997.23  1.54386
   2000.00  1.54901
   2002.77  1.55418
   2005.55  1.55936
   2008.34  1.56457
   2011.12  1.56979
   2013.91  1.57502
   2016.70  1.58029
   2019.50  1.58558
   2022.30  1.59089
   2025.11  1.59622
   2027.92  1.60157
   2030.73  1.60694
   2033.55  1.61232
   2036.37  1.61772
   2039.20  1.62314
   2042.02  1.62858
   2044.86  1.63404
   2047.69  1.63951
   2050.53  1.64501
   2053.38  1.65053
   2056.23  1.65606
   2059.08  1.66162
   2061.94  1.66719
   2064.80  1.67278
   2067.66  1.67839
   2070.53  1.68402
   2073.40  1.68967
   2076.28  1.69534
   2079.16  1.70103
   2082.04  1.70677
   2084.93  1.71262
   2087.82  1.71849
   2090.72  1.72438
   2093.62  1.73029
   2096.52  1.73622
   2099.43  1.74217
   2102.35  1.74815
   2105.26  1.75414
   2108.18  1.76015
   2111.11  1.76618
   2114.04  1.77224
   2116.97  1.77833
   2119.91  1.78445
   2122.85  1.79059
   2125.79  1.79675
   2128.74  1.80293
   2131.69  1.80913
   2134.65  1.81536
   2137.61  1.82161
   2140.58  1.82787
   2143.55  1.83416
   2146.52  1.84048
   2149.50  1.84681
   2152.48  1.85320
   2155.47  1.85961
   2158.46  1.86604
   2161.45  1.87249
   2164.45  1.87897
   2167.45  1.88546
   2170.46  1.89198
   2173.47  1.89853
   2176.48  1.90509
   2179.50  1.91168
   2182.53  1.91829
   2185.56  1.92495
   2188.59  1.93165
   2191.62  1.93837
   2194.66  1.94511
   2197.71  1.95188
   2200.76  1.95867
   2203.81  1.96549
   2206.87  1.97233
   2209.93  1.97919
   2212.99  1.98608
   2216.06  1.99299
   2219.14  1.99992
   2222.22  2.00690
   2225.30  2.01391
   2228.39  2.02093
   2231.48  2.02799
   2234.57  2.03506
   2237.67  2.04217
   2240.78  2.04929
   2243.89  2.05644
   2247.00  2.06362
   2250.12  2.07082
   2253.24  2.07805
   2256.36  2.08532
   2259.49  2.09263
   2262.63  2.09997
   2265.77  2.10734
   2268.91  2.11473
   2272.06  2.12215
   2275.21  2.12959
   2278.37  2.13706
   2281.53  2.14456
   2284.69  2.15208
   2287.86  2.15963
   2291.04  2.16721
   2294.21  2.17485
   2297.40  2.18251
   2300.58  2.19021
   2303.78  2.19793
   2306.97  2.20568
   2310.17  2.21345
   2313.38  2.22125
   2316.59  2.22909
   2319.80  2.23694
   2323.02  2.24483
   2326.24  2.25274
   2329.47  2.26069
   2332.70  2.26869
   2335.93  2.27671
   2339.18  2.28476
   2342.42  2.29284
   2345.67  2.30095
   2348.92  2.30908
   2352.18  2.31725
   2355.45  2.32545
   2358.71  2.33367
   2361.99  2.34192
   2365.26  2.35020
   2368.54  2.35855
   2371.83  2.36694
   2375.12  2.37536
   2378.41  2.38381
   2381.71  2.39228
   2385.02  2.40079
   2388.33  2.40933
   2391.64  2.41790
   2394.96  2.42650
   2398.28  2.43513
   2401.61  2.44380
   2404.94  2.45249
   2408.27  2.46124
   2411.62  2.47002
   2414.96  2.47883
   2418.31  2.48767
   2421.67  2.49654
   2425.03  2.50544
   2428.39  2.51438
   2431.76  2.52335
   2435.13  2.53234
   2438.51  2.54138
   2441.89  2.55044
   2445.28  2.55956
   2448.67  2.56873
   2452.07  2.57794
   2455.47  2.58717
   2458.88  2.59644
   2462.29  2.60574
   2465.70  2.61508
   2469.13  2.62445
   2472.55  2.63385
   2475.98  2.64329
   2479.42  2.65276
   2482.85  2.66226
   2486.30  2.67184
   2489.75  2.68145
   2493.20  2.69109
   2496.66  2.70077
   2500.12  2.71048
   2503.59  2.72023
   2507.07  2.73001
   2510.54  2.73983
   2514.03  2.74968
   2517.51  2.75957
   2521.01  2.76949
   2524.50  2.77946
   2528.01  2.78948
   2531.51  2.79953
   2535.03  2.80962
   2538.54  2.81975
   2542.06  2.82991
   2545.59  2.84011
   2549.12  2.85035
   2552.66  2.86062
   2556.20  2.87093
   2559.74  2.88128
   2563.30  2.89166
   2566.85  2.90213
   2570.41  2.91265
   2573.98  2.92320
   2577.55  2.93379
   2581.13  2.94442
   2584.71  2.95509
   2588.29  2.96580
   2591.88  2.97654
   2595.48  2.98733
   2599.08  2.99815
   2602.68  3.00902
   2606.29  3.01992
   2609.91  3.03089
   2613.53  3.04190
   2617.16  3.05295
   2620.79  3.06404
   2624.42  3.07517
   2628.06  3.08634
   2631.71  3.09754
   2635.36  3.10880
   2639.02  3.12009
   2642.68  3.13142
   2646.34  3.14279
   2650.01  3.15423
   2653.69  3.16571
   2657.37  3.17723
   2661.06  3.18880
   2664.75  3.20041
   2668.45  3.21207
   2672.15  3.22376
   2675.86  3.23550
   2679.57  3.24728
   2683.28  3.25910
   2687.01  3.27096
   2690.73  3.28288
   2694.47  3.29490
   2698.21  3.30697
   2701.95  3.31907
   2705.70  3.33122
   2709.45  3.34342
   2713.21  3.35566
   2716.97  3.36795
   2720.74  3.38027
   2724.52  3.39265
   2728.30  3.40507
   2732.08  3.41754
   2735.87  3.43006
   2739.67  3.44264
   2743.47  3.45526
   2747.27  3.46793
   2751.08  3.48065
   2754.90  3.49341
   2758.72  3.50622
   2762.55  3.51908
   2766.38  3.53198
   2770.22  3.54493
   2774.06  3.55793
   2777.91  3.57098
   2781.76  3.58411
   2785.62  3.59729
   2789.49  3.61051
   2793.36  3.62379
   2797.23  3.63711
   2801.11  3.65048
   2805.00  3.66391
   2808.89  3.67738
   2812.79  3.69090
   2816.69  3.70447
   2820.60  3.71809
   2824.51  3.73178
   2828.43  3.74555
   2832.35  3.75937
   2836.28  3.77325
   2840.21  3.78717
   2844.15  3.80114
   2848.10  3.81517
   2852.05  3.82925
   2856.01  3.84338
   2859.97  3.85756
   2863.94  3.87179
   2867.91  3.88608
   2871.89  3.90045
   2875.87  3.91487
   2879.86  3.92935
   2883.86  3.94388
   2887.86  3.95846
   2891.86  3.97311
   2895.88  3.98780
   2899.89  4.00254
   2903.92  4.01734
   2907.95  4.03220
   2911.98  4.04711
   2916.02  4.06210
   2920.06  4.07718
   2924.11  4.09231
   2928.17  4.10750
   2932.23  4.12275
   2936.30  4.13806
   2940.37  4.15342
   2944.45  4.16884
   2948.54  4.18431
   2952.63  4.19985
   2956.72  4.21544
   2960.83  4.23108
   2964.93  4.24681
   2969.05  4.26260
   2973.17  4.27845
   2977.29  4.29436
   2981.42  4.31033
   2985.56  4.32635
   2989.70  4.34244
   2993.85  4.35859
   2998.00  4.37479
   3002.16  4.39106
   3006.32  4.40739
   3010.49  4.42378
   3014.67  4.44027
   3018.85  4.45683
   3023.04  4.47344
   3027.23  4.49013
   3031.43  4.50686
   3035.64  4.52367
   3039.85  4.54054
   3044.07  4.55746
   3048.29  4.57446
   3052.52  4.59152
   3056.75  4.60863
   3060.99  4.62585
   3065.24  4.64315
   3069.49  4.66051
   3073.75  4.67794
   3078.01  4.69543
   3082.28  4.71299
   3086.56  4.73062
   3090.84  4.74830
   3095.13  4.76606
   3099.42  4.78389
   3103.72  4.80178
   3108.03  4.81974
   3112.34  4.83779
   3116.66  4.85590
   3120.98  4.87409
   3125.31  4.89234
   3129.65  4.91066
   3133.99  4.92905
   3138.34  4.94751
   3142.69  4.96604
   3147.05  4.98464
   3151.42  5.00330
   3155.79  5.02204
   3160.17  5.04087
   3164.55  5.05981
   3168.94  5.07883
   3173.34  5.09791
   3177.74  5.11707
   3182.15  5.13630
   3186.56  5.15560
   3190.98  5.17497
   3195.41  5.19442
   3199.84  5.21393
   3204.28  5.23353
   3208.72  5.25319
   3213.18  5.27297
   3217.63  5.29282
   3222.10  5.31274
   3226.57  5.33275
   3231.04  5.35283
   3235.53  5.37298
   3240.01  5.39321
   3244.51  5.41352
   3249.01  5.43389
   3253.52  5.45436
   3258.03  5.47489
   3262.55  5.49551
   3267.08  5.51624
   3271.61  5.53704
   3276.15  5.55793
   3280.69  5.57889
   3285.24  5.59993
   3289.80  5.62105
   3294.36  5.64225
   3298.93  5.66353
   3303.51  5.68489
   3308.09  5.70632
   3312.68  5.72785
   3317.28  5.74951
   3321.88  5.77126
   3326.49  5.79311
   3331.10  5.81504
   3335.72  5.83704
   3340.35  5.85914
   3344.99  5.88131
   3349.63  5.90357
   3354.27  5.92591
   3358.93  5.94834
   3363.59  5.97085
   3368.25  5.99346
   3372.92  6.01616
   3377.60  6.03896
   3382.29  6.06184
   3386.98  6.08480
   3391.68  6.10786
   3396.39  6.13099
   3401.10  6.15422
   3405.81  6.17754
   3410.54  6.20094
   3415.27  6.22444
   3420.01  6.24802
   3424.75  6.27172
   3429.50  6.29554
   3434.26  6.31945
   3439.03  6.34344
   3443.80  6.36753
   3448.57  6.39171
   3453.36  6.41598
   3458.15  6.44035
   3462.95  6.46480
   3467.75  6.48935
   3472.56  6.51400
   3477.38  6.53873
   3482.20  6.56362
   3487.03  6.58860
   3491.87  6.61367
   3496.71  6.63885
   3501.57  6.66411
   3506.42  6.68948
   3511.29  6.71494
   3516.16  6.74049
   3521.04  6.76615
   3525.92  6.79191
   3530.81  6.81775
   3535.71  6.84371
   3540.61  6.86980
   3545.53  6.89597
   3550.45  6.92225
   3555.37  6.94862
   3560.30  6.97510
   3565.24  7.00168
   3570.19  7.02835
   3575.14  7.05514
   3580.10  7.08202
   3585.07  7.10900
   3590.04  7.13609
   3595.02  7.16336
   3600.01  7.19073
   3605.00  7.21822
   3610.00  7.24580
   3615.01  7.27350
   3620.03  7.30131
   3625.05  7.32921
   3630.08  7.35723
   3635.11  7.38535
   3640.16  7.41357
   3645.21  7.44191
   3650.26  7.47037
   3655.33  7.49895
   3660.40  7.52766
   3665.47  7.55646
   3670.56  7.58539
   3675.65  7.61442
   3680.75  7.64355
   3685.86  7.67281
   3690.97  7.70218
   3696.09  7.73165
   3701.22  7.76125
   3706.35  7.79095
   3711.49  7.82079
   3716.64  7.85077
   3721.80  7.88085
   3726.96  7.91106
   3732.13  7.94138
   3737.31  7.97181
   3742.49  8.00237
   3747.69  8.03304
   3752.88  8.06382
   3758.09  8.09473
   3763.30  8.12574
   3768.53  8.15690
   3773.75  8.18825
   3778.99  8.21972
   3784.23  8.25131
   3789.48  8.28303
   3794.74  8.31486
   3800.00  8.34682
   3805.27  8.37890
   3810.55  8.41110
   3815.84  8.44343
   3821.13  8.47587
   3826.43  8.50845
   3831.74  8.54117
   3837.06  8.57402
   3842.38  8.60700
   3847.71  8.64011
   3853.05  8.67334
   3858.39  8.70670
   3863.75  8.74020
   3869.11  8.77381
   3874.47  8.80756
   3879.85  8.84143
   3885.23  8.87544
   3890.62  8.90959
   3896.02  8.94392
   3901.42  8.97841
   3906.83  9.01302
   3912.25  9.04776
   3917.68  9.08265
   3923.12  9.11767
   3928.56  9.15281
   3934.01  9.18810
   3939.47  9.22351
   3944.93  9.25907
   3950.40  9.29478
   3955.88  9.33062
   3961.37  9.36665
   3966.87  9.40283
   3972.37  9.43913
   3977.88  9.47558
   3983.40  9.51216
   3988.93  9.54889
   3994.46  9.58577
   4000.00  9.62277
   4005.55  9.65994
   4011.11  9.69724
   4016.67  9.73468
   4022.24  9.77230
   4027.82  9.81008
   4033.41  9.84799
   4039.01  9.88606
   4044.61  9.92428
   4050.22  9.96263
   4055.84  10.0011
   4061.46  10.0398
   4067.10  10.0786
   4072.74  10.1176
   4078.39  10.1567
   4084.05  10.1960
   4089.71  10.2355
   4095.39  10.2751
   4101.07  10.3150
   4106.76  10.3549
   4112.46  10.3951
   4118.16  10.4353
   4123.87  10.4758
   4129.59  10.5164
   4135.32  10.5571
   4141.06  10.5980
   4146.80  10.6391
   4152.56  10.6804
   4158.32  10.7218
   4164.09  10.7634
   4169.86  10.8051
   4175.65  10.8470
   4181.44  10.8891
   4187.24  10.9313
   4193.05  10.9737
   4198.87  11.0163
   4204.69  11.0590
   4210.52  11.1019
   4216.37  11.1449
   4222.21  11.1882
   4228.07  11.2317
   4233.94  11.2753
   4239.81  11.3191
   4245.69  11.3630
   4251.58  11.4072
   4257.48  11.4515
   4263.39  11.4960
   4269.30  11.5406
   4275.22  11.5854
   4281.15  11.6304
   4287.09  11.6756
   4293.04  11.7211
   4299.00  11.7667
   4304.96  11.8125
   4310.93  11.8584
   4316.91  11.9046
   4322.90  11.9509
   4328.90  11.9974
   4334.90  12.0441
   4340.92  12.0910
   4346.94  12.1380
   4352.97  12.1852
   4359.01  12.2327
   4365.06  12.2803
   4371.11  12.3282
   4377.17  12.3762
   4383.25  12.4244
   4389.33  12.4728
   4395.42  12.5214
   4401.51  12.5701
   4407.62  12.6191
   4413.73  12.6683
   4419.86  12.7176
   4425.99  12.7672
   4432.13  12.8170
   4438.28  12.8670
   4444.44  12.9172
   4450.60  12.9676
   4456.77  13.0183
   4462.96  13.0691
   4469.15  13.1201
   4475.35  13.1713
   4481.56  13.2226
   4487.77  13.2743
   4494.00  13.3261
   4500.23  13.3781
   4506.48  13.4304
   4512.73  13.4829
   4518.99  13.5356
   4525.26  13.5884
   4531.54  13.6416
   4537.82  13.6948
   4544.12  13.7484
   4550.42  13.8021
   4556.73  13.8560
   4563.05  13.9102
   4569.38  13.9645
   4575.72  14.0191
   4582.07  14.0740
   4588.43  14.1290
   4594.79  14.1843
   4601.17  14.2398
   4607.55  14.2955
   4613.94  14.3514
   4620.34  14.4076
   4626.75  14.4639
   4633.17  14.5205
   4639.60  14.5773
   4646.04  14.6344
   4652.48  14.6918
   4658.93  14.7494
   4665.40  14.8072
   4671.87  14.8652
   4678.35  14.9235
   4684.84  14.9820
   4691.34  15.0407
   4697.85  15.0997
   4704.37  15.1589
   4710.89  15.2183
   4717.43  15.2779
   4723.97  15.3379
   4730.52  15.3980
   4737.09  15.4584
   4743.66  15.5191
   4750.24  15.5799
   4756.83  15.6410
   4763.43  15.7024
   4770.04  15.7640
   4776.65  15.8258
   4783.28  15.8879
   4789.92  15.9502
   4796.56  16.0128
   4803.21  16.0757
   4809.88  16.1388
   4816.55  16.2022
   4823.23  16.2658
   4829.92  16.3297
   4836.62  16.3938
   4843.33  16.4582
   4850.05  16.5228
   4856.78  16.5876
   4863.52  16.6528
   4870.26  16.7182
   4877.02  16.7839
   4883.79  16.8499
   4890.56  16.9161
   4897.35  16.9827
   4904.14  17.0495
   4910.94  17.1165
   4917.76  17.1838
   4924.58  17.2514
   4931.41  17.3192
   4938.25  17.3873
   4945.10  17.4557
   4951.96  17.5243
   4958.83  17.5933
   4965.71  17.6625
   4972.60  17.7320
   4979.50  17.8018
   4986.40  17.8718
   4993.32  17.9422
   5000.25  18.0128
   5007.19  18.0837
   5014.13  18.1548
   5021.09  18.2263
   5028.05  18.2980
   5035.03  18.3701
   5042.01  18.4426
   5049.01  18.5154
   5056.01  18.5884
   5063.03  18.6617
   5070.05  18.7354
   5077.08  18.8093
   5084.13  18.8835
   5091.18  18.9580
   5098.24  19.0328
   5105.31  19.1079
   5112.40  19.1833
   5119.49  19.2590
   5126.59  19.3350
   5133.70  19.4113
   5140.83  19.4879
   5147.96  19.5649
   5155.10  19.6421
   5162.25  19.7196
   5169.41  19.7975
   5176.58  19.8757
   5183.76  19.9541
   5190.96  20.0329
   5198.16  20.1119
   5205.37  20.1914
   5212.59  20.2711
   5219.82  20.3512
   5227.06  20.4316
   5234.31  20.5123
   5241.57  20.5932
   5248.85  20.6746
   5256.13  20.7562
   5263.42  20.8382
   5270.72  20.9205
   5278.03  21.0031
   5285.35  21.0862
   5292.69  21.1696
   5300.03  21.2533
   5307.38  21.3374
   5314.74  21.4218
   5322.12  21.5066
   5329.50  21.5917
   5336.89  21.6770
   5344.30  21.7628
   5351.71  21.8489
   5359.13  21.9353
   5366.57  22.0221
   5374.01  22.1093
   5381.47  22.1968
   5388.93  22.2847
   5396.41  22.3729
   5403.90  22.4615
   5411.39  22.5504
   5418.90  22.6396
   5426.42  22.7293
   5433.95  22.8193
   5441.48  22.9096
   5449.03  23.0003
   5456.59  23.0915
   5464.16  23.1830
   5471.74  23.2749
   5479.33  23.3672
   5486.93  23.4598
   5494.54  23.5528
   5502.17  23.6462
   5509.80  23.7399
   5517.44  23.8341
   5525.10  23.9285
   5532.76  24.0234
   5540.44  24.1187
   5548.12  24.2144
   5555.82  24.3105
   5563.53  24.4070
   5571.25  24.5039
   5578.97  24.6012
   5586.71  24.6988
   5594.46  24.7968
   5602.23  24.8953
   5610.00  24.9940
   5617.78  25.0933
   5625.57  25.1929
   5633.38  25.2929
   5641.19  25.3934
   5649.02  25.4943
   5656.85  25.5955
   5664.70  25.6972
   5672.56  25.7993
   5680.43  25.9018
   5688.31  26.0047
   5696.20  26.1080
   5704.10  26.2118
   5712.02  26.3159
   5719.94  26.4204
   5727.88  26.5255
   5735.82  26.6309
   5743.78  26.7369
   5751.75  26.8432
   5759.73  26.9499
   5767.72  27.0571
   5775.72  27.1647
   5783.73  27.2727
   5791.75  27.3811
   5799.79  27.4900
   5807.83  27.5993
   5815.89  27.7091
   5823.96  27.8193
   5832.04  27.9300
   5840.13  28.0412
   5848.23  28.1527
   5856.34  28.2648
   5864.47  28.3773
   5872.60  28.4901
   5880.75  28.6035
   5888.91  28.7173
   5897.08  28.8316
   5905.26  28.9463
   5913.45  29.0616
   5921.65  29.1775
   5929.87  29.2938
   5938.09  29.4105
   5946.33  29.5277
   5954.58  29.6454
   5962.84  29.7635
   5971.11  29.8821
   5979.40  30.0012
   5987.69  30.1208
   5996.00  30.2408
   6004.32  30.3613
   6012.65  30.4825
   6020.99  30.6041
   6029.34  30.7261
   6037.70  30.8487
   6046.08  30.9718
   6054.47  31.0953
   6062.87  31.2194
   6071.28  31.3439
   6079.70  31.4689
   6088.13  31.5945
   6096.58  31.7205
   6105.04  31.8471
   6113.51  31.9742
   6121.99  32.1018
   6130.48  32.2299
   6138.98  32.3586
   6147.50  32.4877
   6156.03  32.6173
   6164.57  32.7475
   6173.12  32.8782
   6181.68  33.0094
   6190.26  33.1411
   6198.85  33.2734
   6207.45  33.4063
   6216.06  33.5397
   6224.68  33.6737
   6233.32  33.8082
   6241.96  33.9431
   6250.62  34.0787
   6259.29  34.2148
   6267.98  34.3514
   6276.67  34.4886
   6285.38  34.6263
   6294.10  34.7646
   6302.83  34.9035
   6311.57  35.0429
   6320.33  35.1828
   6329.10  35.3234
   6337.88  35.4644
   6346.67  35.6061
   6355.48  35.7486
   6364.29  35.8920
   6373.12  36.0359
   6381.96  36.1803
   6390.82  36.3253
   6399.68  36.4710
   6408.56  36.6171
   6417.45  36.7639
   6426.35  36.9113
   6435.27  37.0592
   6444.19  37.2075
   6453.13  37.3564
   6462.09  37.5058
   6471.05  37.6559
   6480.03  37.8066
   6489.02  37.9579
   6498.02  38.1098
   6507.03  38.2622
   6516.06  38.4154
   6525.10  38.5691
   6534.15  38.7234
   6543.22  38.8785
   6552.29  39.0342
   6561.38  39.1906
   6570.49  39.3476
   6579.60  39.5051
   6588.73  39.6634
   6597.87  39.8223
   6607.02  39.9817
   6616.19  40.1419
   6625.37  40.3027
   6634.56  40.4641
   6643.76  40.6262
   6652.98  40.7892
   6662.21  40.9529
   6671.45  41.1172
   6680.70  41.2821
   6689.97  41.4478
   6699.25  41.6141
   6708.55  41.7810
   6717.85  41.9487
   6727.17  42.1170
   6736.50  42.2859
   6745.85  42.4556
   6755.21  42.6260
   6764.58  42.7971
   6773.96  42.9690
   6783.36  43.1414
   6792.77  43.3146
   6802.19  43.4886
   6811.63  43.6631
   6821.08  43.8384
   6830.54  44.0144
   6840.02  44.1911
   6849.51  44.3685
   6859.01  44.5466
   6868.52  44.7255
   6878.05  44.9052
   6887.59  45.0855
   6897.15  45.2666
   6906.72  45.4484
   6916.30  45.6309
   6925.89  45.8142
   6935.50  45.9982
   6945.12  46.1829
   6954.76  46.3684
   6964.40  46.5546
   6974.07  46.7417
   6983.74  46.9297
   6993.43  47.1184
   7003.13  47.3079
   7012.85  47.4981
   7022.57  47.6891
   7032.32  47.8808
   7042.07  48.0734
   7051.84  48.2667
   7061.62  48.4608
   7071.42  48.6556
   7081.23  48.8512
   7091.05  49.0478
   7100.89  49.2451
   7110.74  49.4433
   7120.61  49.6423
   7130.48  49.8420
   7140.38  50.0425
   7150.28  50.2438
   7160.20  50.4460
   7170.13  50.6490
   7180.08  50.8527
   7190.04  51.0574
   7200.02  51.2629
   7210.00  51.4692
   7220.01  51.6765
   7230.02  51.8846
   7240.05  52.0934
   7250.10  52.3032
   7260.15  52.5137
   7270.23  52.7252
   7280.31  52.9375
   7290.41  53.1505
   7300.52  53.3645
   7310.65  53.5794
   7320.79  53.7953
   7330.95  54.0122
   7341.12  54.2300
   7351.30  54.4485
   7361.50  54.6680
   7371.71  54.8884
   7381.94  55.1097
   7392.18  55.3318
   7402.44  55.5548
   7412.70  55.7788
   7422.99  56.0037
   7433.29  56.2294
   7443.60  56.4562
   7453.92  56.6839
   7464.26  56.9125
   7474.62  57.1421
   7484.99  57.3724
   7495.37  57.6039
   7505.77  57.8362
   7516.18  58.0694
   7526.61  58.3036
   7537.05  58.5388
   7547.51  58.7748
   7557.98  59.0120
   7568.46  59.2501
   7578.96  59.4891
   7589.47  59.7292
   7600.00  59.9702
   7610.55  60.2122
   7621.10  60.4552
   7631.68  60.6991
   7642.26  60.9440
   7652.87  61.1900
   7663.48  61.4368
   7674.11  61.6848
   7684.76  61.9338
   7695.42  62.1841
   7706.10  62.4353
   7716.79  62.6874
   7727.49  62.9407
   7738.21  63.1950
   7748.95  63.4502
   7759.70  63.7065
   7770.46  63.9639
   7781.24  64.2222
   7792.03  64.4816
   7802.84  64.7420
   7813.67  65.0038
   7824.51  65.2665
   7835.36  65.5302
   7846.23  65.7951
   7857.12  66.0610
   7868.02  66.3280
   7878.93  66.5960
   7889.86  66.8652
   7900.81  67.1354
   7911.77  67.4067
   7922.74  67.6790
   7933.73  67.9528
   7944.74  68.2278
   7955.76  68.5037
   7966.80  68.7808
   7977.85  69.0591
   7988.92  69.3383
   8000.00  69.6188
   8011.10  69.9005
   8022.21  70.1831
   8033.34  70.4671
   8044.48  70.7520
   8055.64  71.0383
   8066.82  71.3259
   8078.01  71.6145
   8089.22  71.9044
   8100.44  72.1955
   8111.68  72.4876
   8122.93  72.7810
   8134.20  73.0756
   8145.48  73.3713
   8156.78  73.6683
   8168.10  73.9664
   8179.43  74.2658
   8190.78  74.5665
   8202.14  74.8684
   8213.52  75.1717
   8224.91  75.4761
   8236.32  75.7817
   8247.75  76.0886
   8259.19  76.3968
   8270.65  76.7061
   8282.12  77.0167
   8293.61  77.3285
   8305.11  77.6417
   8316.64  77.9562
   8328.17  78.2721
   8339.73  78.5894
   8351.30  78.9080
   8362.88  79.2277
   8374.48  79.5489
   8386.10  79.8712
   8397.73  80.1950
   8409.38  80.5201
   8421.05  80.8463
   8432.73  81.1740
   8444.43  81.5031
   8456.14  81.8334
   8467.87  82.1653
   8479.62  82.4985
   8491.39  82.8330
   8503.17  83.1689
   8514.96  83.5062
   8526.77  83.8447
   8538.60  84.1847
   8550.45  84.5259
   8562.31  84.8687
   8574.19  85.2129
   8586.08  85.5583
   8597.99  85.9056
   8609.92  86.2543
   8621.87  86.6043
   8633.83  86.9558
   8645.80  87.3088
   8657.80  87.6630
   8669.81  88.0188
   8681.83  88.3759
   8693.88  88.7346
   8705.94  89.0948
   8718.02  89.4562
   8730.11  89.8194
   8742.22  90.1842
   8754.35  90.5504
   8766.49  90.9182
   8778.66  91.2873
   8790.83  91.6581
   8803.03  92.0304
   8815.24  92.4040
   8827.47  92.7793
   8839.72  93.1561
   8851.98  93.5342
   8864.26  93.9141
   8876.56  94.2957
   8888.87  94.6786
   8901.20  95.0632
   8913.55  95.4492
   8925.92  95.8370
   8938.30  96.2263
   8950.70  96.6171
   8963.11  97.0096
   8975.55  97.4036
   8988.00  97.7991
   9000.47  98.1964
   9012.95  98.5955
   9025.46  98.9963
   9037.98  99.3990
   9050.52  99.8031
   9063.07  100.209
   9075.64  100.617
   9088.23  101.026
   9100.84  101.437
   9113.47  101.849
   9126.11  102.263
   9138.77  102.679
   9151.45  103.097
   9164.14  103.516
   9176.86  103.937
   9189.59  104.360
   9202.33  104.784
   9215.10  105.210
   9227.88  105.638
   9240.69  106.068
   9253.51  106.499
   9266.34  106.933
   9279.20  107.368
   9292.07  107.804
   9304.96  108.243
   9317.87  108.683
   9330.79  109.125
   9343.74  109.569
   9356.70  110.015
   9369.68  110.463
   9382.68  110.912
   9395.70  111.364
   9408.73  111.817
   9421.78  112.272
   9434.85  112.729
   9447.94  113.187
   9461.05  113.648
   9474.17  114.111
   9487.32  114.576
   9500.48  115.043
   9513.66  115.511
   9526.85  115.982
   9540.07  116.454
   9553.31  116.928
   9566.56  117.405
   9579.83  117.883
   9593.12  118.363
   9606.43  118.845
   9619.75  119.329
   9633.10  119.816
   9646.46  120.304
   9659.84  120.794
   9673.25  121.286
   9686.67  121.781
   9700.10  122.277
   9713.56  122.775
   9727.03  123.275
   9740.53  123.778
   9754.04  124.282
   9767.57  124.789
   9781.12  125.297
   9794.69  125.808
   9808.28  126.321
   9821.89  126.836
   9835.51  127.354
   9849.16  127.873
   9862.82  128.394
   9876.50  128.917
   9890.20  129.443
   9903.92  129.971
   9917.66  130.500
   9931.42  131.033
   9945.20  131.567
   9958.99  132.104
   9972.81  132.643
   9986.64  133.184
   10000.5  133.727
   10014.4  134.272
   10028.3  134.820
   10042.2  135.370
   10056.1  135.922
   10070.1  136.476
   10084.0  137.033
   10098.0  137.593
   10112.0  138.154
   10126.1  138.719
   10140.1  139.285
   10154.2  139.853
   10168.3  140.424
   10182.4  140.997
   10196.5  141.573
   10210.6  142.151
   10224.8  142.731
   10239.0  143.314
   10253.2  143.899
   10267.4  144.487
   10281.7  145.077
   10295.9  145.669
   10310.2  146.264
   10324.5  146.861
   10338.8  147.461
   10353.2  148.063
   10367.5  148.668
   10381.9  149.274
   10396.3  149.884
   10410.7  150.496
   10425.2  151.111
   10439.6  151.729
   10454.1  152.349
   10468.6  152.972
   10483.1  153.597
   10497.7  154.224
   10512.3  154.855
   10526.8  155.488
   10541.4  156.123
   10556.1  156.761
   10570.7  157.402
   10585.4  158.045
   10600.1  158.691
   10614.8  159.339
   10629.5  159.991
   10644.2  160.645
   10659.0  161.301
   10673.8  161.961
   10688.6  162.623
   10703.4  163.287
   10718.3  163.955
   10733.1  164.625
   10748.0  165.297
   10762.9  165.974
   10777.9  166.653
   10792.8  167.335
   10807.8  168.019
   10822.8  168.706
   10837.8  169.397
   10852.8  170.090
   10867.9  170.785
   10883.0  171.484
   10898.1  172.186
   10913.2  172.890
   10928.3  173.597
   10943.5  174.307
   10958.7  175.020
   10973.9  175.736
   10989.1  176.455
   11004.3  177.177
   11019.6  177.902
   11034.9  178.630
   11050.2  179.360
   11065.5  180.094
   11080.9  180.831
   11096.2  181.570
   11111.6  182.313
   11127.1  183.060
   11142.5  183.810
   11157.9  184.562
   11173.4  185.318
   11188.9  186.077
   11204.5  186.838
   11220.0  187.603
   11235.6  188.371
   11251.1  189.142
   11266.8  189.917
   11282.4  190.694
   11298.0  191.475
   11313.7  192.260
   11329.4  193.047
   11345.1  193.838
   11360.9  194.632
   11376.6  195.428
   11392.4  196.229
   11408.2  197.033
   11424.0  197.839
   11439.9  198.649
   11455.8  199.463
   11471.6  200.280
   11487.6  201.101
   11503.5  201.924
   11519.5  202.752
   11535.4  203.583
   11551.4  204.417
   11567.5  205.254
   11583.5  206.095
   11599.6  206.939
   11615.7  207.787
   11631.8  208.638
   11647.9  209.493
   11664.1  210.352
   11680.3  211.214
   11696.5  212.080
   11712.7  212.950
   11728.9  213.823
   11745.2  214.699
   11761.5  215.579
   11777.8  216.463
   11794.2  217.351
   11810.5  218.241
   11826.9  219.136
   11843.3  220.035
   11859.7  220.937
   11876.2  221.843
   11892.7  222.753
   11909.2  223.666
   11925.7  224.584
   11942.2  225.505
   11958.8  226.429
   11975.4  227.358
   11992.0  228.290
   12008.6  229.226
   12025.3  230.166
   12042.0  231.110
   12058.7  232.059
   12075.4  233.011
   12092.2  233.966
   12108.9  234.926
   12125.7  235.889
   12142.6  236.857
   12159.4  237.829
   12176.3  238.804
   12193.2  239.783
   12210.1  240.767
   12227.0  241.754
   12244.0  242.746
   12261.0  243.743
   12278.0  244.743
   12295.0  245.747
   12312.1  246.755
   12329.1  247.767
   12346.2  248.784
   12363.4  249.805
   12380.5  250.829
   12397.7  251.859
   12414.9  252.891
   12432.1  253.930
   12449.4  254.973
   12466.6  256.019
   12483.9  257.071
   12501.2  258.126
   12518.6  259.186
   12536.0  260.250
   12553.3  261.318
   12570.8  262.391
   12588.2  263.469
   12605.7  264.550
   12623.1  265.636
   12640.7  266.727
   12658.2  267.822
   12675.8  268.922
   12693.3  270.026
   12711.0  271.135
   12728.6  272.249
   12746.2  273.366
   12763.9  274.489
   12781.6  275.616
   12799.4  276.747
   12817.1  277.884
   12834.9  279.025
   12852.7  280.171
   12870.5  281.322
   12888.4  282.478
   12906.3  283.638
   12924.2  284.804
   12942.1  285.973
   12960.1  287.148
   12978.0  288.328
   12996.0  289.511
   13014.1  290.701
   13032.1  291.894
   13050.2  293.094
   13068.3  294.298
   13086.4  295.507
   13104.6  296.721
   13122.8  297.940
   13141.0  299.163
   13159.2  300.392
   13177.5  301.626
   13195.7  302.865
   13214.0  304.109
   13232.4  305.357
   13250.7  306.612
   13269.1  307.873
   13287.5  309.139
   13306.0  310.410
   13324.4  311.686
   13342.9  312.967
   13361.4  314.254
   13379.9  315.546
   13398.5  316.843
   13417.1  318.145
   13435.7  319.452
   13454.3  320.765
   13473.0  322.084
   13491.7  323.408
   13510.4  324.738
   13529.2  326.073
   13547.9  327.413
   13566.7  328.759
   13585.5  330.109
   13604.4  331.466
   13623.3  332.828
   13642.2  334.196
   13661.1  335.569
   13680.0  336.949
   13699.0  338.334
   13718.0  339.726
   13737.0  341.123
   13756.1  342.526
   13775.2  343.934
   13794.3  345.348
   13813.4  346.768
   13832.6  348.194
   13851.8  349.625
   13871.0  351.063
   13890.2  352.506
   13909.5  353.956
   13928.8  355.412
   13948.1  356.875
   13967.5  358.342
   13986.9  359.817
   14006.3  361.296
   14025.7  362.783
   14045.1  364.275
   14064.6  365.773
   14084.1  367.277
   14103.7  368.788
   14123.2  370.304
   14142.8  371.827
   14162.5  373.357
   14182.1  374.892
   14201.8  376.434
   14221.5  377.981
   14241.2  379.536
   14261.0  381.096
   14280.8  382.663
   14300.6  384.236
   14320.4  385.816
   14340.3  387.401
   14360.2  388.996
   14380.1  390.597
   14400.0  392.204
   14420.0  393.819
   14440.0  395.439
   14460.0  397.066
   14480.1  398.700
   14500.2  400.340
   14520.3  401.988
   14540.5  403.642
   14560.6  405.302
   14580.8  406.969
   14601.0  408.644
   14621.3  410.326
   14641.6  412.014
   14661.9  413.709
   14682.2  415.412
   14702.6  417.121
   14723.0  418.837
   14743.4  420.560
   14763.9  422.290
   14784.4  424.026
   14804.9  425.771
   14825.4  427.523
   14846.0  429.282
   14866.6  431.049
   14887.2  432.823
   14907.8  434.605
   14928.5  436.393
   14949.2  438.188
   14970.0  439.992
   14990.7  441.802
   15011.5  443.620
   15032.4  445.446
   15053.2  447.279
   15074.1  449.122
   15095.0  450.972
   15116.0  452.829
   15136.9  454.694
   15157.9  456.567
   15178.9  458.447
   15200.0  460.335
   15221.1  462.230
   15242.2  464.133
   15263.4  466.044
   15284.5  467.962
   15305.7  469.889
   15327.0  471.825
   15348.2  473.767
   15369.5  475.719
   15390.8  477.678
   15412.2  479.644
   15433.6  481.620
   15455.0  483.603
   15476.4  485.593
   15497.9  487.593
   15519.4  489.599
   15540.9  491.615
   15562.5  493.640
   15584.1  495.674
   15605.7  497.716
   15627.3  499.767
   15649.0  501.825
   15670.7  503.892
   15692.5  505.968
   15714.2  508.052
   15736.0  510.144
   15757.9  512.244
   15779.7  514.354
   15801.6  516.472
   15823.5  518.600
   15845.5  520.737
   15867.5  522.883
   15889.5  525.036
   15911.5  527.199
   15933.6  529.370
   15955.7  531.550
   15977.8  533.740
   16000.0  535.937
   16020.1  537.939
   16040.3  539.946
   16060.5  541.962
   16080.7  543.988
   16100.9  546.020
   16121.1  548.060
   16141.4  550.107
   16161.7  552.162
   16182.1  554.224
   16202.4  556.294
   16222.8  558.372
   16243.2  560.456
   16263.6  562.549
   16284.1  564.648
   16304.6  566.757
   16325.1  568.874
   16345.6  570.999
   16366.2  573.133
   16386.8  575.274
   16407.4  577.423
   16428.1  579.579
   16448.7  581.745
   16469.4  583.917
   16490.1  586.097
   16510.9  588.287
   16531.6  590.483
   16552.4  592.687
   16573.3  594.899
   16594.1  597.122
   16615.0  599.353
   16635.9  601.591
   16656.8  603.839
   16677.8  606.094
   16698.8  608.358
   16719.8  610.630
   16740.8  612.910
   16761.9  615.198
   16782.9  617.494
   16804.1  619.800
   16825.2  622.113
   16846.4  624.435
   16867.6  626.767
   16888.8  629.109
   16910.0  631.458
   16931.3  633.815
   16952.6  636.183
   16973.9  638.558
   16995.3  640.941
   17016.7  643.334
   17038.1  645.735
   17059.5  648.145
   17081.0  650.563
   17102.4  652.991
   17124.0  655.429
   17145.5  657.877
   17167.1  660.335
   17188.7  662.801
   17210.3  665.276
   17231.9  667.760
   17253.6  670.254
   17275.3  672.756
   17297.1  675.267
   17318.8  677.789
   17340.6  680.318
   17362.4  682.857
   17384.3  685.404
   17406.1  687.964
   17428.0  690.533
   17449.9  693.112
   17471.9  695.701
   17493.9  698.298
   17515.9  700.904
   17537.9  703.521
   17560.0  706.147
   17582.1  708.783
   17604.2  711.427
   17626.3  714.083
   17648.5  716.747
   17670.7  719.420
   17692.9  722.106
   17715.2  724.803
   17737.5  727.508
   17759.8  730.224
   17782.1  732.950
   17804.5  735.685
   17826.9  738.430
   17849.3  741.185
   17871.8  743.951
   17894.3  746.726
   17916.8  749.511
   17939.3  752.307
   17961.9  755.112
   17984.5  757.931
   18007.1  760.761
   18029.8  763.600
   18052.5  766.449
   18075.2  769.309
   18097.9  772.180
   18120.7  775.061
   18143.5  777.951
   18166.3  780.852
   18189.1  783.765
   18212.0  786.688
   18234.9  789.620
   18257.9  792.566
   18280.8  795.523
   18303.8  798.491
   18326.9  801.472
   18349.9  804.461
   18373.0  807.461
   18396.1  810.472
   18419.3  813.496
   18442.4  816.529
   18465.6  819.573
   18488.9  822.627
   18512.1  825.695
   18535.4  828.771
   18558.7  831.862
   18582.1  834.967
   18605.5  838.081
   18628.9  841.207
   18652.3  844.345
   18675.8  847.495
   18699.3  850.654
   18722.8  853.826
   18746.3  857.010
   18769.9  860.204
   18793.5  863.409
   18817.2  866.628
   18840.8  869.856
   18864.5  873.099
   18888.3  876.355
   18912.0  879.623
   18935.8  882.902
   18959.7  886.193
   18983.5  889.497
   19007.4  892.812
   19031.3  896.138
   19055.2  899.476
   19079.2  902.828
   19103.2  906.190
   19127.2  909.564
   19151.3  912.952
   19175.4  916.355
   19199.5  919.769
   19223.7  923.196
   19247.9  926.637
   19272.1  930.088
   19296.3  933.552
   19320.6  937.030
   19344.9  940.519
   19369.2  944.019
   19393.6  947.533
   19418.0  951.061
   19442.4  954.600
   19466.9  958.153
   19491.4  961.724
   19515.9  965.307
   19540.4  968.902
   19565.0  972.510
   19589.6  976.133
   19614.3  979.767
   19639.0  983.414
   19663.7  987.075
   19688.4  990.748
   19713.2  994.435
   19738.0  998.136
   19762.8  1001.85
   19787.7  1005.58
   19812.6  1009.32
   19837.5  1013.08
   19862.4  1016.86
   19887.4  1020.64
   19912.4  1024.44
   19937.5  1028.25
   19962.6  1032.08
   19987.7  1035.92
   20012.8  1039.78
   20038.0  1043.65
   20063.2  1047.54
   20088.5  1051.44
   20113.7  1055.36
   20139.0  1059.29
   20164.4  1063.23
   20189.7  1067.19
   20215.1  1071.16
   20240.6  1075.15
   20266.0  1079.15
   20291.5  1083.16
   20317.0  1087.19
   20342.6  1091.24
   20368.2  1095.30
   20393.8  1099.37
   20419.5  1103.46
   20445.2  1107.56
   20470.9  1111.68
   20496.6  1115.81
   20522.4  1119.96
   20548.2  1124.12
   20574.1  1128.30
   20600.0  1132.49
   20625.9  1136.70
   20651.8  1140.92
   20677.8  1145.16
   20703.8  1149.41
   20729.9  1153.68
   20755.9  1157.96
   20782.1  1162.26
   20808.2  1166.58
   20834.4  1170.91
   20860.6  1175.25
   20886.8  1179.61
   20913.1  1183.99
   20939.4  1188.38
   20965.8  1192.79
   20992.1  1197.22
   21018.5  1201.66
   21045.0  1206.11
   21071.5  1210.58
   21098.0  1215.07
   21124.5  1219.58
   21151.1  1224.10
   21177.7  1228.64
   21204.3  1233.19
   21231.0  1237.76
   21257.7  1242.34
   21284.5  1246.95
   21311.2  1251.56
   21338.0  1256.20
   21364.9  1260.85
   21391.8  1265.51
   21418.7  1270.20
   21445.6  1274.90
   21472.6  1279.62
   21499.6  1284.35
   21526.7  1289.10
   21553.7  1293.87
   21580.9  1298.66
   21608.0  1303.46
   21635.2  1308.28
   21662.4  1313.11
   21689.7  1317.97
   21716.9  1322.83
   21744.3  1327.72
   21771.6  1332.63
   21799.0  1337.55
   21826.4  1342.49
   21853.9  1347.45
   21881.4  1352.43
   21908.9  1357.42
   21936.5  1362.43
   21964.1  1367.46
   21991.7  1372.50
   22019.4  1377.57
   22047.1  1382.65
   22074.8  1387.75
   22102.6  1392.86
   22130.4  1398.00
   22158.2  1403.16
   22186.1  1408.33
   22214.0  1413.52
   22241.9  1418.73
   22269.9  1423.96
   22297.9  1429.21
   22326.0  1434.47
   22354.1  1439.76
   22382.2  1445.06
   22410.4  1450.38
   22438.5  1455.72
   22466.8  1461.07
   22495.0  1466.45
   22523.3  1471.85
   22551.7  1477.26
   22580.0  1482.70
   22608.4  1488.15
   22636.9  1493.62
   22665.4  1499.11
   22693.9  1504.62
   22722.4  1510.15
   22751.0  1515.70
   22779.6  1521.27
   22808.3  1526.85
   22837.0  1532.46
   22865.7  1538.09
   22894.5  1543.74
   22923.3  1549.40
   22952.1  1555.09
   22981.0  1560.80
   23009.9  1566.53
   23038.8  1572.27
   23067.8  1578.04
   23096.8  1583.83
   23125.9  1589.63
   23155.0  1595.46
   23184.1  1601.30
   23213.3  1607.17
   23242.5  1613.06
   23271.7  1618.97
   23301.0  1624.90
   23330.3  1630.85
   23359.7  1636.82
   23389.1  1642.81
   23418.5  1648.82
   23447.9  1654.85
   23477.4  1660.90
   23507.0  1666.98
   23536.5  1673.07
   23566.2  1679.18
   23595.8  1685.32
   23625.5  1691.48
   23655.2  1697.66
   23685.0  1703.86
   23714.8  1710.09
   23744.6  1716.33
   23774.5  1722.59
   23804.4  1728.88
   23834.3  1735.19
   23864.3  1741.52
   23894.3  1747.87
   23924.4  1754.24
   23954.5  1760.64
   23984.6  1767.05
   24014.8  1773.49
   24045.0  1779.96
   24075.3  1786.44
   24105.5  1792.95
   24135.9  1799.48
   24166.2  1806.03
   24196.6  1812.60
   24227.1  1819.20
   24257.5  1825.82
   24288.1  1832.46
   24318.6  1839.12
   24349.2  1845.81
   24379.8  1852.52
   24410.5  1859.25
   24441.2  1866.01
   24472.0  1872.79
   24502.8  1879.59
   24533.6  1886.41
   24564.4  1893.27
   24595.3  1900.14
   24626.3  1907.03
   24657.3  1913.95
   24688.3  1920.89
   24719.3  1927.85
   24750.4  1934.84
   24781.6  1941.86
   24812.7  1948.89
   24844.0  1955.95
   24875.2  1963.04
   24906.5  1970.15
   24937.8  1977.28
   24969.2  1984.43
   25000.6  1991.62
   25032.1  1998.82
   25063.6  2006.05
   25095.1  2013.30
   25126.7  2020.58
   25158.3  2027.87
   25189.9  2035.20
   25221.6  2042.56
   25253.3  2049.93
   25285.1  2057.33
   25316.9  2064.76
   25348.8  2072.21
   25380.7  2079.68
   25412.6  2087.18
   25444.6  2094.71
   25476.6  2102.26
   25508.6  2109.83
   25540.7  2117.43
   25572.8  2125.06
   25605.0  2132.71
   25637.2  2140.39
   25669.5  2148.10
   25701.8  2155.83
   25734.1  2163.58
   25766.5  2171.37
   25798.9  2179.17
   25831.3  2187.01
   25863.8  2194.86
   25896.4  2202.75
   25929.0  2210.66
   25961.6  2218.59
   25994.2  2226.56
   26026.9  2234.55
   26059.7  2242.56
   26092.5  2250.60
   26125.3  2258.68
   26158.1  2266.77
   26191.1  2274.89
   26224.0  2283.04
   26257.0  2291.21
   26290.0  2299.41
   26323.1  2307.64
   26356.2  2315.90
   26389.4  2324.18
   26422.6  2332.49
   26455.8  2340.83
   26489.1  2349.20
   26522.4  2357.59
   26555.8  2366.01
   26589.2  2374.46
   26622.6  2382.93
   26656.1  2391.44
   26689.7  2399.97
   26723.2  2408.52
   26756.9  2417.11
   26790.5  2425.72
   26824.2  2434.36
   26858.0  2443.03
   26891.7  2451.73
   26925.6  2460.46
   26959.5  2469.21
   26993.4  2478.00
   27027.3  2486.81
   27061.3  2495.65
   27095.4  2504.51
   27129.5  2513.41
   27163.6  2522.33
   27197.8  2531.28
   27232.0  2540.26
   27266.2  2549.28
   27300.5  2558.32
   27334.9  2567.39
   27369.3  2576.49
   27403.7  2585.63
   27438.2  2594.79
   27472.7  2603.97
   27507.2  2613.19
   27541.8  2622.44
   27576.5  2631.71
   27611.2  2641.02
   27645.9  2650.35
   27680.7  2659.71
   27715.5  2669.11
   27750.4  2678.54
   27785.3  2687.99
   27820.3  2697.48
   27855.3  2706.99
   27890.3  2716.54
   27925.4  2726.12
   27960.5  2735.72
   27995.7  2745.36
   28030.9  2755.02
   28066.2  2764.72
   28101.5  2774.44
   28136.8  2784.20
   28172.2  2793.99
   28207.7  2803.81
   28243.2  2813.66
   28278.7  2823.54
   28314.3  2833.45
   28349.9  2843.39
   28385.5  2853.37
   28421.2  2863.37
   28457.0  2873.40
   28492.8  2883.47
   28528.6  2893.57
   28564.5  2903.69
   28600.5  2913.85
   28636.4  2924.05
   28672.5  2934.28
   28708.5  2944.54
   28744.7  2954.83
   28780.8  2965.15
   28817.0  2975.51
   28853.3  2985.89
   28889.6  2996.31
   28925.9  3006.76
   28962.3  3017.24
   28998.7  3027.75
   29035.2  3038.29
   29071.8  3048.87
   29108.3  3059.48
   29144.9  3070.14
   29181.6  3080.81
   29218.3  3091.52
   29255.1  3102.27
   29291.9  3113.05
   29328.7  3123.85
   29365.6  3134.70
   29402.6  3145.57
   29439.6  3156.47
   29476.6  3167.41
   29513.7  3178.38
   29550.8  3189.39
   29588.0  3200.43
   29625.2  3211.51
   29662.5  3222.61
   29699.8  3233.75
   29737.1  3244.92
   29774.6  3256.13
   29812.0  3267.37
   29849.5  3278.64
   29887.1  3289.95
   29924.7  3301.28
   29962.3  3312.66
   30000.0  3324.06
