# progression for http://henke.lbl.gov/optical_constants/atten2.html
# 100eV-500eV always in 500 steps, 500-1000eV, 1000-2000, 2000-4000, 4000-8000, 8000-16000, 16000-30000
# Si3N4 Density=3.44, Angle=90.deg
# Photon Energy (eV), Atten Length (microns)
   100.000  7.945389E-02
   100.322  6.842058E-02
   100.646  5.235750E-02
   100.970  4.633647E-02
   101.296  4.615824E-02
   101.622  4.945675E-02
   101.950  5.509892E-02
   102.279  5.859804E-02
   102.609  5.741758E-02
   102.939  6.026478E-02
   103.271  6.077614E-02
   103.604  6.428624E-02
   103.938  6.478050E-02
   104.273  6.588002E-02
   104.610  6.581169E-02
   104.947  6.554753E-02
   105.285  6.452288E-02
   105.625  6.234023E-02
   105.965  5.886502E-02
   106.307  5.760819E-02
   106.649  5.633669E-02
   106.993  5.524932E-02
   107.338  5.476166E-02
   107.684  5.402827E-02
   108.032  5.331021E-02
   108.380  5.280923E-02
   108.729  5.259523E-02
   109.080  5.255073E-02
   109.431  5.255078E-02
   109.784  5.206103E-02
   110.138  5.156051E-02
   110.493  5.101321E-02
   110.850  5.033381E-02
   111.207  4.971722E-02
   111.566  4.918284E-02
   111.925  4.880596E-02
   112.286  4.842877E-02
   112.648  4.809681E-02
   113.011  4.782987E-02
   113.376  4.756234E-02
   113.741  4.729415E-02
   114.108  4.694343E-02
   114.476  4.639650E-02
   114.845  4.580335E-02
   115.215  4.517559E-02
   115.587  4.451814E-02
   115.959  4.383526E-02
   116.333  4.315783E-02
   116.708  4.248591E-02
   117.084  4.185541E-02
   117.462  4.135324E-02
   117.841  4.091198E-02
   118.221  4.062334E-02
   118.602  4.040305E-02
   118.984  4.008369E-02
   119.368  4.010737E-02
   119.753  4.002566E-02
   120.139  3.988054E-02
   120.526  3.973514E-02
   120.915  3.958936E-02
   121.304  3.944333E-02
   121.695  3.932493E-02
   122.088  3.925221E-02
   122.481  3.924048E-02
   122.876  3.922841E-02
   123.272  3.921595E-02
   123.670  3.923583E-02
   124.069  3.927317E-02
   124.469  3.918375E-02
   124.870  3.928429E-02
   125.273  3.931153E-02
   125.676  3.929563E-02
   126.082  3.927935E-02
   126.488  3.926274E-02
   126.896  3.924575E-02
   127.305  3.925640E-02
   127.715  3.922078E-02
   128.127  3.913450E-02
   128.540  3.905000E-02
   128.955  3.898409E-02
   129.370  3.891779E-02
   129.788  3.878413E-02
   130.206  3.864962E-02
   130.626  3.854614E-02
   131.047  3.844254E-02
   131.469  3.833869E-02
   131.893  3.835637E-02
   132.319  3.838328E-02
   132.745  3.841002E-02
   133.173  3.851304E-02
   133.603  3.877470E-02
   134.033  3.918362E-02
   134.465  3.959675E-02
   134.899  4.012303E-02
   135.334  4.066563E-02
   135.770  4.121540E-02
   136.208  4.170302E-02
   136.647  4.209709E-02
   137.088  4.247113E-02
   137.530  4.290573E-02
   137.973  4.300823E-02
   138.418  4.311082E-02
   138.864  4.321351E-02
   139.312  4.331630E-02
   139.761  4.339330E-02
   140.212  4.339917E-02
   140.664  4.341356E-02
   141.117  4.354844E-02
   141.572  4.370148E-02
   142.028  4.394249E-02
   142.486  4.406650E-02
   142.946  4.427161E-02
   143.407  4.418641E-02
   143.869  4.406183E-02
   144.333  4.401023E-02
   144.798  4.398722E-02
   145.265  4.389405E-02
   145.733  4.385976E-02
   146.203  4.387487E-02
   146.675  4.385048E-02
   147.147  4.387143E-02
   147.622  4.386777E-02
   148.098  4.396572E-02
   148.575  4.400241E-02
   149.054  4.414977E-02
   149.535  4.430383E-02
   150.017  4.453100E-02
   150.501  4.453075E-02
   150.986  4.427588E-02
   151.473  4.383653E-02
   151.961  4.355163E-02
   152.451  4.358803E-02
   152.942  4.404783E-02
   153.436  4.455708E-02
   153.930  4.524819E-02
   154.427  4.597661E-02
   154.924  4.640923E-02
   155.424  4.663016E-02
   155.925  4.671214E-02
   156.428  4.660164E-02
   156.932  4.660482E-02
   157.438  4.663193E-02
   157.946  4.651115E-02
   158.455  4.616554E-02
   158.966  4.627733E-02
   159.478  4.622850E-02
   159.992  4.616442E-02
   160.508  4.600152E-02
   161.026  4.583871E-02
   161.545  4.567591E-02
   162.066  4.551304E-02
   162.588  4.536003E-02
   163.112  4.525539E-02
   163.638  4.517014E-02
   164.166  4.513477E-02
   164.695  4.514818E-02
   165.226  4.524576E-02
   165.759  4.531837E-02
   166.293  4.536439E-02
   166.829  4.559519E-02
   167.367  4.547619E-02
   167.907  4.546569E-02
   168.448  4.556170E-02
   168.991  4.565774E-02
   169.536  4.588666E-02
   170.083  4.614477E-02
   170.631  4.655081E-02
   171.181  4.696046E-02
   171.733  4.766335E-02
   172.287  4.832102E-02
   172.842  4.880401E-02
   173.399  4.917686E-02
   173.959  5.029885E-02
   174.519  5.090074E-02
   175.082  5.179611E-02
   175.646  5.240539E-02
   176.213  5.307333E-02
   176.781  5.373624E-02
   177.351  5.417617E-02
   177.923  5.453946E-02
   178.496  5.522884E-02
   179.072  5.559885E-02
   179.649  5.596013E-02
   180.228  5.597151E-02
   180.809  5.625986E-02
   181.392  5.654963E-02
   181.977  5.684084E-02
   182.564  5.713351E-02
   183.152  5.742764E-02
   183.743  5.772325E-02
   184.335  5.802032E-02
   184.930  5.831885E-02
   185.526  5.861887E-02
   186.124  5.892159E-02
   186.724  5.922732E-02
   187.326  5.953459E-02
   187.930  5.984341E-02
   188.536  6.015379E-02
   189.144  6.047118E-02
   189.754  6.079678E-02
   190.365  6.112407E-02
   190.979  6.145309E-02
   191.595  6.178383E-02
   192.213  6.211627E-02
   192.832  6.245042E-02
   193.454  6.278634E-02
   194.078  6.312399E-02
   194.703  6.346346E-02
   195.331  6.380469E-02
   195.961  6.414775E-02
   196.593  6.449265E-02
   197.227  6.483933E-02
   197.862  6.518783E-02
   198.500  6.553815E-02
   199.140  6.589032E-02
   199.782  6.624431E-02
   200.426  6.660020E-02
   201.073  6.695792E-02
   201.721  6.730903E-02
   202.371  6.765394E-02
   203.024  6.800061E-02
   203.678  6.834896E-02
   204.335  6.869911E-02
   204.994  6.904551E-02
   205.655  6.938890E-02
   206.318  6.973392E-02
   206.983  7.008059E-02
   207.650  7.042896E-02
   208.320  7.077897E-02
   208.991  7.113067E-02
   209.665  7.148404E-02
   210.341  7.183914E-02
   211.019  7.219591E-02
   211.700  7.255439E-02
   212.382  7.291461E-02
   213.067  7.327654E-02
   213.754  7.364023E-02
   214.443  7.400565E-02
   215.134  7.437284E-02
   215.828  7.474182E-02
   216.524  7.511252E-02
   217.222  7.548504E-02
   217.922  7.585935E-02
   218.625  7.624330E-02
   219.330  7.663441E-02
   220.037  7.702749E-02
   220.746  7.742253E-02
   221.458  7.781993E-02
   222.172  7.826445E-02
   222.888  7.873967E-02
   223.607  7.921777E-02
   224.328  7.969870E-02
   225.051  8.018257E-02
   225.777  8.066934E-02
   226.504  8.115906E-02
   227.235  8.165170E-02
   227.967  8.214732E-02
   228.702  8.264587E-02
   229.440  8.314748E-02
   230.179  8.365205E-02
   230.922  8.415969E-02
   231.666  8.467032E-02
   232.413  8.518403E-02
   233.162  8.570086E-02
   233.914  8.622074E-02
   234.668  8.674378E-02
   235.425  8.726990E-02
   236.184  8.779923E-02
   236.945  8.833165E-02
   237.709  8.886731E-02
   238.476  8.940608E-02
   239.244  8.994816E-02
   240.016  9.049344E-02
   240.790  9.104206E-02
   241.566  9.159395E-02
   242.345  9.214916E-02
   243.126  9.270766E-02
   243.910  9.326956E-02
   244.696  9.383483E-02
   245.485  9.440356E-02
   246.277  9.497561E-02
   247.071  9.555111E-02
   247.867  9.613010E-02
   248.666  9.674176E-02
   249.468  9.736879E-02
   250.272  9.799984E-02
   251.079  9.863497E-02
   251.889  9.927416E-02
   252.701  9.992252E-02
   253.516  0.100577
   254.333  0.101236
   255.153  0.101898
   255.976  0.102566
   256.801  0.103237
   257.629  0.103913
   258.459  0.104594
   259.293  0.105279
   260.129  0.105968
   260.967  0.106662
   261.809  0.107360
   262.653  0.108063
   263.500  0.108770
   264.349  0.109482
   265.201  0.110199
   266.056  0.110920
   266.914  0.111646
   267.775  0.112377
   268.638  0.113112
   269.504  0.113852
   270.373  0.114598
   271.245  0.115348
   272.119  0.116102
   272.997  0.116862
   273.877  0.117627
   274.760  0.118396
   275.646  0.119171
   276.534  0.119951
   277.426  0.120735
   278.320  0.121525
   279.218  0.122320
   280.118  0.123120
   281.021  0.123926
   281.927  0.124736
   282.836  0.125552
   283.748  0.126373
   284.663  0.127200
   285.580  0.128032
   286.501  0.128869
   287.425  0.129712
   288.352  0.130560
   289.281  0.131414
   290.214  0.132273
   291.150  0.133138
   292.088  0.134009
   293.030  0.134885
   293.975  0.135767
   294.922  0.136654
   295.873  0.137548
   296.827  0.138467
   297.784  0.139395
   298.744  0.140330
   299.707  0.141270
   300.674  0.142217
   301.643  0.143188
   302.616  0.144166
   303.591  0.145152
   304.570  0.146144
   305.552  0.147143
   306.537  0.148149
   307.525  0.149162
   308.517  0.150181
   309.512  0.151208
   310.509  0.152248
   311.511  0.153299
   312.515  0.154357
   313.522  0.155423
   314.533  0.156496
   315.547  0.157581
   316.565  0.158676
   317.585  0.159778
   318.609  0.160888
   319.636  0.162006
   320.667  0.163131
   321.701  0.164264
   322.738  0.165405
   323.779  0.166553
   324.822  0.167709
   325.870  0.168873
   326.920  0.170046
   327.974  0.171226
   329.032  0.172414
   330.093  0.173610
   331.157  0.174815
   332.224  0.176028
   333.296  0.177249
   334.370  0.178478
   335.448  0.179716
   336.530  0.180963
   337.615  0.182217
   338.703  0.183481
   339.795  0.184753
   340.891  0.186034
   341.990  0.187323
   343.092  0.188621
   344.198  0.189929
   345.308  0.191245
   346.421  0.192570
   347.538  0.193904
   348.659  0.195247
   349.783  0.196600
   350.911  0.197961
   352.042  0.199332
   353.177  0.200712
   354.316  0.202102
   355.458  0.203502
   356.604  0.204910
   357.754  0.206329
   358.907  0.207757
   360.064  0.209195
   361.225  0.210642
   362.390  0.212099
   363.558  0.213567
   364.730  0.215057
   365.906  0.216706
   367.086  0.218367
   368.269  0.220040
   369.457  0.221727
   370.648  0.223430
   371.843  0.225187
   373.042  0.226958
   374.244  0.228743
   375.451  0.230541
   376.662  0.232354
   377.876  0.234180
   379.094  0.236021
   380.316  0.237877
   381.543  0.239747
   382.773  0.241631
   384.007  0.243530
   385.245  0.245444
   386.487  0.247374
   387.733  0.249318
   388.983  0.251277
   390.237  0.253252
   391.495  0.255242
   392.758  0.257248
   394.024  0.259270
   395.294  0.261307
   396.569  0.263361
   397.847  0.265430
   399.130  0.267515
   400.417  0.269617
   401.708  0.271735
   403.003  0.273870
   404.302  0.276022
   405.606  0.278190
   406.913  0.280376
   408.225  0.282578
   409.541  0.284797
   410.862  0.132868
   412.186  0.133877
   413.515  0.134894
   414.848  0.135918
   416.186  0.136950
   417.528  0.137990
   418.874  0.139038
   420.224  0.140094
   421.579  0.141158
   422.938  0.142230
   424.302  0.143310
   425.670  0.144398
   427.042  0.145495
   428.419  0.146600
   429.800  0.147713
   431.186  0.148835
   432.576  0.149965
   433.971  0.151104
   435.370  0.152251
   436.774  0.153407
   438.182  0.154572
   439.595  0.155746
   441.012  0.156929
   442.434  0.158121
   443.860  0.159321
   445.291  0.160531
   446.727  0.161750
   448.167  0.162978
   449.612  0.164216
   451.062  0.165463
   452.516  0.166719
   453.975  0.167986
   455.438  0.169261
   456.907  0.170548
   458.380  0.171849
   459.858  0.173159
   461.340  0.174480
   462.828  0.175810
   464.320  0.177158
   465.817  0.178533
   467.319  0.179918
   468.825  0.181313
   470.337  0.182720
   471.853  0.184137
   473.375  0.185565
   474.901  0.187004
   476.432  0.188454
   477.968  0.189916
   479.509  0.191389
   481.055  0.192873
   482.606  0.194369
   484.162  0.195877
   485.723  0.197396
   487.289  0.198927
   488.860  0.200469
   490.436  0.202024
   492.017  0.203591
   493.603  0.205169
   495.195  0.206761
   496.791  0.208364
   498.393  0.209980
   500.000  0.211608
   500.694  0.212313
   501.388  0.213021
   502.084  0.213731
   502.780  0.214443
   503.478  0.215158
   504.176  0.215875
   504.876  0.216594
   505.576  0.217316
   506.277  0.218040
   506.980  0.218766
   507.683  0.219495
   508.387  0.220227
   509.093  0.220960
   509.799  0.221697
   510.506  0.222436
   511.214  0.223177
   511.923  0.223920
   512.634  0.224666
   513.345  0.225415
   514.057  0.226166
   514.770  0.226919
   515.484  0.227675
   516.199  0.228434
   516.915  0.229195
   517.632  0.229959
   518.351  0.230725
   519.070  0.231494
   519.790  0.232265
   520.511  0.233039
   521.233  0.233815
   521.956  0.234594
   522.680  0.235376
   523.405  0.236160
   524.131  0.236947
   524.858  0.237737
   525.586  0.238529
   526.316  0.239323
   527.046  0.240121
   527.777  0.240921
   528.509  0.241724
   529.242  0.242529
   529.976  0.243337
   530.712  0.244147
   531.448  0.244961
   532.185  0.245777
   532.923  0.246596
   533.663  0.247417
   534.403  0.248242
   535.144  0.249069
   535.887  0.249898
   536.630  0.250731
   537.375  0.251566
   538.120  0.252404
   538.867  0.253245
   539.614  0.254089
   540.363  0.254935
   541.112  0.255785
   541.863  0.256637
   542.615  0.257492
   543.367  0.258350
   544.121  0.259210
   544.876  0.260074
   545.632  0.260940
   546.389  0.261809
   547.147  0.262681
   547.906  0.263557
   548.666  0.264434
   549.427  0.265315
   550.189  0.266199
   550.953  0.267086
   551.717  0.267976
   552.482  0.268868
   553.249  0.269764
   554.016  0.270662
   554.785  0.271564
   555.554  0.272468
   556.325  0.273376
   557.097  0.274287
   557.870  0.275200
   558.644  0.276117
   559.419  0.277037
   560.195  0.277959
   560.972  0.278885
   561.750  0.279841
   562.529  0.280804
   563.310  0.281771
   564.091  0.282740
   564.874  0.283713
   565.657  0.284690
   566.442  0.285669
   567.228  0.286652
   568.015  0.287639
   568.803  0.288629
   569.592  0.289622
   570.382  0.290626
   571.173  0.291649
   571.966  0.292675
   572.759  0.293705
   573.554  0.294738
   574.349  0.295775
   575.146  0.296816
   575.944  0.297861
   576.743  0.298909
   577.543  0.299961
   578.344  0.301016
   579.146  0.302076
   579.950  0.303139
   580.754  0.304207
   581.560  0.305295
   582.367  0.306386
   583.175  0.307481
   583.984  0.308580
   584.794  0.309683
   585.605  0.310790
   586.417  0.311901
   587.231  0.313016
   588.046  0.314135
   588.861  0.315258
   589.678  0.316385
   590.496  0.317522
   591.315  0.318668
   592.136  0.319819
   592.957  0.320973
   593.780  0.322132
   594.604  0.323295
   595.428  0.324462
   596.254  0.325633
   597.082  0.326808
   597.910  0.327988
   598.739  0.329172
   599.570  0.330360
   600.402  0.331553
   601.235  0.332750
   602.069  0.333951
   602.904  0.335157
   603.740  0.336367
   604.578  0.337581
   605.417  0.338800
   606.256  0.340023
   607.097  0.341251
   607.940  0.342482
   608.783  0.343719
   609.628  0.344959
   610.473  0.346205
   611.320  0.347454
   612.168  0.348708
   613.017  0.349967
   613.868  0.351230
   614.719  0.352498
   615.572  0.353770
   616.426  0.355048
   617.281  0.356329
   618.138  0.357615
   618.995  0.358906
   619.854  0.360202
   620.714  0.361502
   621.575  0.362807
   622.437  0.364117
   623.301  0.365431
   624.165  0.366750
   625.031  0.368074
   625.898  0.369403
   626.767  0.370736
   627.636  0.372074
   628.507  0.373417
   629.379  0.374765
   630.252  0.376118
   631.126  0.377476
   632.002  0.378838
   632.878  0.380206
   633.756  0.381578
   634.635  0.382956
   635.516  0.384338
   636.397  0.385726
   637.280  0.387118
   638.164  0.388515
   639.050  0.389918
   639.936  0.391325
   640.824  0.392738
   641.713  0.394155
   642.603  0.395578
   643.495  0.397006
   644.387  0.398439
   645.281  0.399878
   646.176  0.401321
   647.073  0.402769
   647.970  0.404223
   648.869  0.405682
   649.770  0.407147
   650.671  0.408616
   651.574  0.410091
   652.477  0.411571
   653.383  0.413057
   654.289  0.414548
   655.197  0.416044
   656.106  0.417546
   657.016  0.419053
   657.927  0.420565
   658.840  0.422083
   659.754  0.423607
   660.669  0.425136
   661.586  0.426670
   662.504  0.428211
   663.423  0.429756
   664.343  0.431307
   665.265  0.432864
   666.187  0.434427
   667.112  0.435995
   668.037  0.437569
   668.964  0.439148
   669.892  0.440733
   670.821  0.442324
   671.752  0.443921
   672.684  0.445523
   673.617  0.447131
   674.551  0.448745
   675.487  0.450365
   676.424  0.451990
   677.362  0.453622
   678.302  0.455259
   679.243  0.456902
   680.185  0.458551
   681.129  0.460206
   682.074  0.461867
   683.020  0.463534
   683.968  0.465207
   684.917  0.466886
   685.867  0.468571
   686.818  0.470262
   687.771  0.471959
   688.725  0.473662
   689.680  0.475372
   690.637  0.477088
   691.595  0.478810
   692.555  0.480538
   693.516  0.482247
   694.478  0.483956
   695.441  0.485671
   696.406  0.487392
   697.372  0.489119
   698.339  0.490852
   699.308  0.492591
   700.278  0.494337
   701.250  0.496089
   702.222  0.497846
   703.197  0.499610
   704.172  0.501377
   705.149  0.503137
   706.127  0.504903
   707.107  0.506675
   708.088  0.508453
   709.070  0.510238
   710.054  0.512029
   711.039  0.513826
   712.025  0.515630
   713.013  0.517440
   714.002  0.519256
   714.992  0.521078
   715.984  0.522908
   716.978  0.524744
   717.972  0.526586
   718.968  0.528434
   719.966  0.530289
   720.964  0.532151
   721.965  0.534019
   722.966  0.535894
   723.969  0.537775
   724.973  0.539663
   725.979  0.541557
   726.986  0.543458
   727.995  0.545366
   729.005  0.547280
   730.016  0.549201
   731.029  0.551129
   732.043  0.553063
   733.058  0.555005
   734.075  0.556953
   735.094  0.558908
   736.113  0.560870
   737.135  0.562838
   738.157  0.564814
   739.181  0.566796
   740.207  0.568786
   741.234  0.570782
   742.262  0.572786
   743.292  0.574796
   744.323  0.576814
   745.355  0.578838
   746.389  0.580870
   747.425  0.582909
   748.461  0.584955
   749.500  0.587008
   750.540  0.589069
   751.581  0.591136
   752.623  0.593211
   753.667  0.595294
   754.713  0.597384
   755.760  0.599480
   756.808  0.601585
   757.858  0.603697
   758.910  0.605816
   759.962  0.607942
   761.017  0.610076
   762.072  0.612235
   763.130  0.614401
   764.188  0.616576
   765.248  0.618757
   766.310  0.620947
   767.373  0.623144
   768.438  0.625350
   769.504  0.627563
   770.571  0.629783
   771.640  0.632012
   772.711  0.634249
   773.782  0.636505
   774.856  0.638788
   775.931  0.641079
   777.007  0.643379
   778.085  0.645687
   779.165  0.648003
   780.245  0.650328
   781.328  0.652660
   782.412  0.655001
   783.497  0.657350
   784.584  0.659709
   785.673  0.662075
   786.762  0.664462
   787.854  0.666866
   788.947  0.669295
   790.041  0.671732
   791.137  0.674179
   792.235  0.676634
   793.334  0.679098
   794.434  0.681572
   795.536  0.684054
   796.640  0.686545
   797.745  0.689046
   798.852  0.691555
   799.960  0.694074
   801.070  0.696638
   802.181  0.699233
   803.294  0.701836
   804.408  0.704450
   805.524  0.707074
   806.642  0.709707
   807.761  0.712349
   808.881  0.715003
   810.003  0.717665
   811.127  0.720338
   812.252  0.723020
   813.379  0.725713
   814.508  0.728415
   815.638  0.731127
   816.769  0.733849
   817.902  0.736582
   819.037  0.739324
   820.173  0.742077
   821.311  0.744841
   822.450  0.747614
   823.591  0.750398
   824.734  0.753191
   825.878  0.755996
   827.023  0.758811
   828.171  0.761637
   829.320  0.764473
   830.470  0.767320
   831.622  0.770177
   832.776  0.773045
   833.931  0.775924
   835.088  0.778814
   836.246  0.781714
   837.406  0.784625
   838.568  0.787542
   839.732  0.790465
   840.896  0.793399
   842.063  0.796343
   843.231  0.799299
   844.401  0.802266
   845.572  0.805243
   846.745  0.808232
   847.920  0.811232
   849.096  0.814243
   850.274  0.817265
   851.454  0.820299
   852.635  0.823333
   853.818  0.826378
   855.002  0.829435
   856.188  0.832503
   857.376  0.835582
   858.565  0.838672
   859.756  0.841774
   860.949  0.844888
   862.144  0.848012
   863.340  0.851149
   864.537  0.854297
   865.737  0.857453
   866.938  0.860614
   868.140  0.863788
   869.345  0.866973
   870.551  0.870170
   871.758  0.873378
   872.968  0.876599
   874.179  0.879831
   875.391  0.883076
   876.606  0.886331
   877.822  0.889600
   879.040  0.892880
   880.259  0.896173
   881.480  0.899478
   882.703  0.902795
   883.928  0.906125
   885.154  0.909466
   886.382  0.912820
   887.611  0.916187
   888.843  0.919566
   890.076  0.922957
   891.310  0.926360
   892.547  0.929777
   893.785  0.933206
   895.025  0.936647
   896.267  0.940152
   897.510  0.943702
   898.755  0.947264
   900.002  0.950840
   901.250  0.954431
   902.501  0.958034
   903.753  0.961651
   905.006  0.965282
   906.262  0.968927
   907.519  0.972584
   908.778  0.976256
   910.039  0.979943
   911.301  0.983694
   912.565  0.987458
   913.831  0.991236
   915.099  0.995030
   916.369  0.998837
   917.640  1.00266
   918.913  1.00650
   920.188  1.01035
   921.464  1.01421
   922.742  1.01810
   924.023  1.02202
   925.304  1.02596
   926.588  1.02992
   927.873  1.03389
   929.161  1.03788
   930.450  1.04188
   931.740  1.04590
   933.033  1.04993
   934.327  1.05398
   935.623  1.05804
   936.921  1.06212
   938.221  1.06622
   939.523  1.07034
   940.826  1.07447
   942.131  1.07862
   943.438  1.08279
   944.747  1.08697
   946.058  1.09117
   947.370  1.09538
   948.684  1.09962
   950.000  1.10386
   951.318  1.10813
   952.638  1.11241
   953.960  1.11671
   955.283  1.12103
   956.608  1.12536
   957.935  1.12972
   959.264  1.13409
   960.595  1.13848
   961.927  1.14288
   963.262  1.14730
   964.598  1.15174
   965.936  1.15619
   967.276  1.16067
   968.618  1.16516
   969.962  1.16966
   971.307  1.17419
   972.655  1.17873
   974.004  1.18329
   975.355  1.18787
   976.709  1.19246
   978.063  1.19708
   979.420  1.20171
   980.779  1.20635
   982.140  1.21102
   983.502  1.21570
   984.866  1.22041
   986.233  1.22513
   987.601  1.22986
   988.971  1.23462
   990.343  1.23940
   991.717  1.24419
   993.093  1.24901
   994.470  1.25384
   995.850  1.25869
   997.231  1.26356
   998.615  1.26845
   1000.00  1.27335
   1001.39  1.27828
   1002.78  1.28322
   1004.17  1.28819
   1005.56  1.29317
   1006.96  1.29818
   1008.35  1.30320
   1009.75  1.30824
   1011.15  1.31331
   1012.55  1.31839
   1013.96  1.32349
   1015.37  1.32861
   1016.77  1.33374
   1018.19  1.33888
   1019.60  1.34405
   1021.01  1.34923
   1022.43  1.35443
   1023.85  1.35965
   1025.27  1.36490
   1026.69  1.37016
   1028.11  1.37544
   1029.54  1.38075
   1030.97  1.38607
   1032.40  1.39142
   1033.83  1.39682
   1035.26  1.40224
   1036.70  1.40768
   1038.14  1.41313
   1039.58  1.41861
   1041.02  1.42412
   1042.47  1.42964
   1043.91  1.43518
   1045.36  1.44075
   1046.81  1.44634
   1048.26  1.45195
   1049.72  1.45760
   1051.17  1.46328
   1052.63  1.46900
   1054.09  1.47473
   1055.55  1.48049
   1057.02  1.48627
   1058.48  1.49207
   1059.95  1.49790
   1061.42  1.50374
   1062.90  1.50962
   1064.37  1.51551
   1065.85  1.52142
   1067.33  1.52736
   1068.81  1.53333
   1070.29  1.53931
   1071.77  1.54532
   1073.26  1.55135
   1074.75  1.55741
   1076.24  1.56349
   1077.73  1.56959
   1079.23  1.57572
   1080.73  1.58187
   1082.22  1.58804
   1083.73  1.59424
   1085.23  1.60047
   1086.73  1.60660
   1088.24  1.61272
   1089.75  1.61887
   1091.26  1.62503
   1092.78  1.63122
   1094.29  1.63744
   1095.81  1.64368
   1097.33  1.64994
   1098.85  1.65622
   1100.38  1.66253
   1101.91  1.66887
   1103.43  1.67521
   1104.96  1.68148
   1106.50  1.68777
   1108.03  1.69408
   1109.57  1.70042
   1111.11  1.70679
   1112.65  1.71318
   1114.19  1.71959
   1115.74  1.72602
   1117.29  1.73248
   1118.84  1.73896
   1120.39  1.74547
   1121.94  1.75201
   1123.50  1.75856
   1125.06  1.76515
   1126.62  1.77176
   1128.18  1.77839
   1129.75  1.78505
   1131.31  1.79173
   1132.88  1.79844
   1134.46  1.80517
   1136.03  1.81193
   1137.61  1.81872
   1139.18  1.82552
   1140.76  1.83236
   1142.35  1.83922
   1143.93  1.84610
   1145.52  1.85301
   1147.11  1.85995
   1148.70  1.86691
   1150.29  1.87390
   1151.89  1.88092
   1153.49  1.88796
   1155.09  1.89502
   1156.69  1.90212
   1158.29  1.90924
   1159.90  1.91639
   1161.51  1.92356
   1163.12  1.93076
   1164.73  1.93799
   1166.35  1.94524
   1167.97  1.95252
   1169.59  1.95983
   1171.21  1.96717
   1172.83  1.97453
   1174.46  1.98192
   1176.09  1.98934
   1177.72  1.99679
   1179.36  2.00426
   1180.99  2.01177
   1182.63  2.01930
   1184.27  2.02686
   1185.91  2.03445
   1187.56  2.04207
   1189.21  2.04971
   1190.86  2.05739
   1192.51  2.06509
   1194.16  2.07282
   1195.82  2.08059
   1197.48  2.08838
   1199.14  2.09621
   1200.80  2.10406
   1202.47  2.11194
   1204.14  2.11986
   1205.81  2.12780
   1207.48  2.13577
   1209.16  2.14378
   1210.83  2.15181
   1212.51  2.15987
   1214.19  2.16797
   1215.88  2.17609
   1217.57  2.18425
   1219.26  2.19244
   1220.95  2.20066
   1222.64  2.20891
   1224.34  2.21719
   1226.03  2.22550
   1227.74  2.23385
   1229.44  2.24222
   1231.14  2.25063
   1232.85  2.25910
   1234.56  2.26762
   1236.28  2.27616
   1237.99  2.28474
   1239.71  2.29336
   1241.43  2.30200
   1243.15  2.31068
   1244.87  2.31939
   1246.60  2.32813
   1248.33  2.33691
   1250.06  2.34571
   1251.80  2.35457
   1253.53  2.36349
   1255.27  2.37245
   1257.01  2.38144
   1258.76  2.39047
   1260.50  2.39953
   1262.25  2.40863
   1264.00  2.41776
   1265.76  2.42692
   1267.51  2.43612
   1269.27  2.44535
   1271.03  2.45462
   1272.79  2.46397
   1274.56  2.47338
   1276.33  2.48282
   1278.10  2.49230
   1279.87  2.50182
   1281.65  2.51137
   1283.43  2.52096
   1285.21  2.53059
   1286.99  2.54025
   1288.77  2.54995
   1290.56  2.55968
   1292.35  2.56946
   1294.15  2.57927
   1295.94  2.58913
   1297.74  2.59905
   1299.54  2.60900
   1301.34  2.61899
   1303.15  2.62901
   1304.95  2.63908
   1306.77  2.64918
   1308.58  2.65933
   1310.39  2.66951
   1312.21  2.67973
   1314.03  2.68999
   1315.85  2.70029
   1317.68  2.71063
   1319.51  2.72100
   1321.34  2.73142
   1323.17  2.74188
   1325.01  2.75238
   1326.85  2.76292
   1328.69  2.77350
   1330.53  2.78411
   1332.37  2.79478
   1334.22  2.80548
   1336.07  2.81622
   1337.93  2.82700
   1339.78  2.83783
   1341.64  2.84869
   1343.50  2.85960
   1345.37  2.87055
   1347.23  2.88155
   1349.10  2.89258
   1350.97  2.90366
   1352.85  2.91478
   1354.72  2.92594
   1356.60  2.93715
   1358.49  2.94841
   1360.37  2.95970
   1362.26  2.97104
   1364.15  2.98243
   1366.04  2.99385
   1367.94  3.00532
   1369.83  3.01684
   1371.73  3.02840
   1373.64  3.04000
   1375.54  3.05165
   1377.45  3.06334
   1379.36  3.07508
   1381.27  3.08686
   1383.19  3.09869
   1385.11  3.11057
   1387.03  3.12250
   1388.96  3.13447
   1390.88  3.14649
   1392.81  3.15855
   1394.74  3.17066
   1396.68  3.18282
   1398.62  3.19502
   1400.56  3.20727
   1402.50  3.21956
   1404.44  3.23190
   1406.39  3.24430
   1408.34  3.25674
   1410.30  3.26923
   1412.25  3.28176
   1414.21  3.29435
   1416.18  3.30698
   1418.14  3.31966
   1420.11  3.33239
   1422.08  3.34517
   1424.05  3.35801
   1426.03  3.37089
   1428.00  3.38383
   1429.98  3.39683
   1431.97  3.40987
   1433.96  3.42297
   1435.94  3.43611
   1437.94  3.44931
   1439.93  3.46255
   1441.93  3.47584
   1443.93  3.48919
   1445.93  3.50259
   1447.94  3.51604
   1449.95  3.52955
   1451.96  3.54310
   1453.97  3.55671
   1455.99  3.57037
   1458.01  3.58409
   1460.03  3.59785
   1462.06  3.61167
   1464.09  3.62554
   1466.12  3.63947
   1468.15  3.65345
   1470.19  3.66748
   1472.23  3.68158
   1474.27  3.69573
   1476.31  3.70994
   1478.36  3.72420
   1480.41  3.73851
   1482.47  3.75288
   1484.52  3.76731
   1486.58  3.78179
   1488.65  3.79633
   1490.71  3.81092
   1492.78  3.82557
   1494.85  3.84033
   1496.92  3.85520
   1499.00  3.87028
   1501.08  3.88540
   1503.16  3.90059
   1505.25  3.91584
   1507.33  3.93115
   1509.43  3.94651
   1511.52  3.96194
   1513.62  3.97743
   1515.72  3.99297
   1517.82  4.00858
   1519.92  4.02426
   1522.03  4.04001
   1524.14  4.05582
   1526.26  4.07169
   1528.38  4.08763
   1530.50  4.10362
   1532.62  4.11968
   1534.75  4.13581
   1536.88  4.15200
   1539.01  4.16824
   1541.14  4.18456
   1543.28  4.20093
   1545.42  4.21736
   1547.56  4.23387
   1549.71  4.25044
   1551.86  4.26708
   1554.01  4.28379
   1556.17  4.30055
   1558.33  4.31739
   1560.49  4.33429
   1562.66  4.35126
   1564.82  4.36829
   1566.99  4.38539
   1569.17  4.40256
   1571.35  4.41980
   1573.52  4.43710
   1575.71  4.45447
   1577.89  4.47191
   1580.08  4.48941
   1582.27  4.50699
   1584.47  4.52463
   1586.67  4.54235
   1588.87  4.56013
   1591.07  4.57798
   1593.28  4.59590
   1595.49  4.61389
   1597.70  4.63196
   1599.92  4.65009
   1602.14  4.66830
   1604.36  4.68658
   1606.59  4.70493
   1608.82  4.72335
   1611.05  4.74184
   1613.28  4.76041
   1615.52  4.77905
   1617.76  4.79776
   1620.01  4.81655
   1622.25  4.83541
   1624.50  4.85434
   1626.76  4.87336
   1629.02  4.89244
   1631.28  4.91160
   1633.54  4.93084
   1635.80  4.95015
   1638.07  4.96954
   1640.35  4.98900
   1642.62  5.00854
   1644.90  5.02816
   1647.18  5.04785
   1649.47  5.06761
   1651.76  5.08746
   1654.05  5.10738
   1656.34  5.12737
   1658.64  5.14745
   1660.94  5.16761
   1663.24  5.18784
   1665.55  5.20815
   1667.86  5.22855
   1670.18  5.24902
   1672.49  5.26957
   1674.81  5.29021
   1677.14  5.31092
   1679.46  5.33171
   1681.79  5.35259
   1684.13  5.37355
   1686.46  5.39459
   1688.80  5.41571
   1691.14  5.43691
   1693.49  5.45820
   1695.84  5.47957
   1698.19  5.50103
   1700.55  5.52256
   1702.91  5.54419
   1705.27  5.56589
   1707.64  5.58768
   1710.00  5.60955
   1712.38  5.63152
   1714.75  5.65356
   1717.13  5.67570
   1719.51  5.69791
   1721.90  5.72023
   1724.29  5.74262
   1726.68  5.76519
   1729.07  5.78791
   1731.47  5.81099
   1733.88  5.83415
   1736.28  5.85741
   1738.69  5.88076
   1741.10  5.90420
   1743.52  5.92773
   1745.94  5.95136
   1748.36  5.97509
   1750.78  5.99890
   1753.21  6.02282
   1755.64  6.04687
   1758.08  6.07106
   1760.52  6.09536
   1762.96  6.11976
   1765.41  6.14426
   1767.86  6.16886
   1770.31  6.19355
   1772.76  6.21835
   1775.22  6.24324
   1777.69  6.26824
   1780.15  6.29333
   1782.62  6.31854
   1785.09  6.34387
   1787.57  6.36936
   1790.05  6.39495
   1792.53  6.42066
   1795.02  6.44645
   1797.51  6.47236
   1800.00  6.49836
   1802.50  6.52448
   1805.00  6.55070
   1807.51  6.57702
   1810.01  6.60345
   1812.52  6.62998
   1815.04  6.65662
   1817.56  6.68337
   1820.08  6.71022
   1822.60  6.73719
   1825.13  6.76426
   1827.66  6.79144
   1830.20  6.81873
   1832.74  6.84613
   1835.28  6.87363
   1837.83  6.90125
   1840.38  1.27993
   1842.93  1.28427
   1845.48  1.28863
   1848.05  1.29301
   1850.61  1.29740
   1853.18  1.30180
   1855.75  1.30622
   1858.32  1.31065
   1860.90  1.31510
   1863.48  1.31956
   1866.07  1.32404
   1868.65  1.32853
   1871.25  1.33304
   1873.84  1.33757
   1876.44  1.34211
   1879.05  1.34666
   1881.65  1.35123
   1884.26  1.35582
   1886.88  1.36042
   1889.49  1.36503
   1892.12  1.36967
   1894.74  1.37432
   1897.37  1.37898
   1900.00  1.38366
   1902.64  1.38836
   1905.28  1.39307
   1907.92  1.39780
   1910.57  1.40254
   1913.22  1.40730
   1915.87  1.41208
   1918.53  1.41687
   1921.19  1.42168
   1923.85  1.42651
   1926.52  1.43135
   1929.20  1.43621
   1931.87  1.44108
   1934.55  1.44597
   1937.24  1.45088
   1939.92  1.45581
   1942.61  1.46075
   1945.31  1.46571
   1948.01  1.47068
   1950.71  1.47567
   1953.42  1.48068
   1956.13  1.48571
   1958.84  1.49075
   1961.56  1.49581
   1964.28  1.50089
   1967.00  1.50598
   1969.73  1.51109
   1972.47  1.51622
   1975.20  1.52136
   1977.94  1.52653
   1980.69  1.53171
   1983.43  1.53691
   1986.19  1.54214
   1988.94  1.54739
   1991.70  1.55266
   1994.46  1.55794
   1997.23  1.56324
   2000.00  1.56856
   2002.77  1.57390
   2005.55  1.57925
   2008.34  1.58462
   2011.12  1.59001
   2013.91  1.59542
   2016.70  1.60086
   2019.50  1.60632
   2022.30  1.61180
   2025.11  1.61730
   2027.92  1.62284
   2030.73  1.62838
   2033.55  1.63395
   2036.37  1.63954
   2039.20  1.64515
   2042.02  1.65077
   2044.86  1.65641
   2047.69  1.66208
   2050.53  1.66777
   2053.38  1.67348
   2056.23  1.67920
   2059.08  1.68495
   2061.94  1.69072
   2064.80  1.69651
   2067.66  1.70231
   2070.53  1.70814
   2073.40  1.71399
   2076.28  1.71985
   2079.16  1.72574
   2082.04  1.73169
   2084.93  1.73773
   2087.82  1.74379
   2090.72  1.74987
   2093.62  1.75598
   2096.52  1.76211
   2099.43  1.76825
   2102.35  1.77442
   2105.26  1.78062
   2108.18  1.78683
   2111.11  1.79306
   2114.04  1.79932
   2116.97  1.80561
   2119.91  1.81193
   2122.85  1.81828
   2125.79  1.82464
   2128.74  1.83103
   2131.69  1.83744
   2134.65  1.84388
   2137.61  1.85033
   2140.58  1.85681
   2143.55  1.86331
   2146.52  1.86984
   2149.50  1.87639
   2152.48  1.88299
   2155.47  1.88961
   2158.46  1.89625
   2161.45  1.90292
   2164.45  1.90961
   2167.45  1.91633
   2170.46  1.92307
   2173.47  1.92983
   2176.48  1.93662
   2179.50  1.94343
   2182.53  1.95026
   2185.56  1.95714
   2188.59  1.96406
   2191.62  1.97101
   2194.66  1.97798
   2197.71  1.98497
   2200.76  1.99199
   2203.81  1.99904
   2206.87  2.00611
   2209.93  2.01320
   2212.99  2.02032
   2216.06  2.02747
   2219.14  2.03464
   2222.22  2.04185
   2225.30  2.04909
   2228.39  2.05635
   2231.48  2.06364
   2234.57  2.07096
   2237.67  2.07830
   2240.78  2.08567
   2243.89  2.09307
   2247.00  2.10049
   2250.12  2.10794
   2253.24  2.11541
   2256.36  2.12292
   2259.49  2.13049
   2262.63  2.13807
   2265.77  2.14569
   2268.91  2.15333
   2272.06  2.16100
   2275.21  2.16870
   2278.37  2.17643
   2281.53  2.18418
   2284.69  2.19196
   2287.86  2.19977
   2291.04  2.20760
   2294.21  2.21550
   2297.40  2.22343
   2300.58  2.23138
   2303.78  2.23936
   2306.97  2.24738
   2310.17  2.25542
   2313.38  2.26349
   2316.59  2.27159
   2319.80  2.27972
   2323.02  2.28787
   2326.24  2.29606
   2329.47  2.30428
   2332.70  2.31255
   2335.93  2.32085
   2339.18  2.32917
   2342.42  2.33753
   2345.67  2.34592
   2348.92  2.35433
   2352.18  2.36278
   2355.45  2.37126
   2358.71  2.37977
   2361.99  2.38831
   2365.26  2.39688
   2368.54  2.40551
   2371.83  2.41419
   2375.12  2.42289
   2378.41  2.43163
   2381.71  2.44040
   2385.02  2.44921
   2388.33  2.45804
   2391.64  2.46691
   2394.96  2.47581
   2398.28  2.48474
   2401.61  2.49370
   2404.94  2.50270
   2408.27  2.51175
   2411.62  2.52083
   2414.96  2.52994
   2418.31  2.53909
   2421.67  2.54827
   2425.03  2.55748
   2428.39  2.56673
   2431.76  2.57601
   2435.13  2.58533
   2438.51  2.59468
   2441.89  2.60406
   2445.28  2.61349
   2448.67  2.62298
   2452.07  2.63251
   2455.47  2.64206
   2458.88  2.65166
   2462.29  2.66128
   2465.70  2.67095
   2469.13  2.68064
   2472.55  2.69037
   2475.98  2.70014
   2479.42  2.70995
   2482.85  2.71979
   2486.30  2.72969
   2489.75  2.73964
   2493.20  2.74962
   2496.66  2.75963
   2500.12  2.76969
   2503.59  2.77978
   2507.07  2.78990
   2510.54  2.80007
   2514.03  2.81027
   2517.51  2.82051
   2521.01  2.83078
   2524.50  2.84110
   2528.01  2.85147
   2531.51  2.86188
   2535.03  2.87233
   2538.54  2.88281
   2542.06  2.89334
   2545.59  2.90390
   2549.12  2.91450
   2552.66  2.92514
   2556.20  2.93582
   2559.74  2.94654
   2563.30  2.95729
   2566.85  2.96813
   2570.41  2.97902
   2573.98  2.98994
   2577.55  3.00091
   2581.13  3.01192
   2584.71  3.02297
   2588.29  3.03405
   2591.88  3.04518
   2595.48  3.05635
   2599.08  3.06756
   2602.68  3.07881
   2606.29  3.09011
   2609.91  3.10147
   2613.53  3.11287
   2617.16  3.12431
   2620.79  3.13580
   2624.42  3.14733
   2628.06  3.15890
   2631.71  3.17051
   2635.36  3.18217
   2639.02  3.19386
   2642.68  3.20560
   2646.34  3.21739
   2650.01  3.22924
   2653.69  3.24113
   2657.37  3.25308
   2661.06  3.26506
   2664.75  3.27709
   2668.45  3.28916
   2672.15  3.30128
   2675.86  3.31345
   2679.57  3.32565
   2683.28  3.33790
   2687.01  3.35020
   2690.73  3.36255
   2694.47  3.37500
   2698.21  3.38750
   2701.95  3.40004
   2705.70  3.41263
   2709.45  3.42527
   2713.21  3.43795
   2716.97  3.45068
   2720.74  3.46346
   2724.52  3.47628
   2728.30  3.48915
   2732.08  3.50207
   2735.87  3.51505
   2739.67  3.52808
   2743.47  3.54117
   2747.27  3.55430
   2751.08  3.56748
   2754.90  3.58071
   2758.72  3.59399
   2762.55  3.60732
   2766.38  3.62070
   2770.22  3.63412
   2774.06  3.64760
   2777.91  3.66113
   2781.76  3.67474
   2785.62  3.68840
   2789.49  3.70211
   2793.36  3.71587
   2797.23  3.72968
   2801.11  3.74355
   2805.00  3.75747
   2808.89  3.77143
   2812.79  3.78545
   2816.69  3.79953
   2820.60  3.81365
   2824.51  3.82785
   2828.43  3.84212
   2832.35  3.85645
   2836.28  3.87083
   2840.21  3.88527
   2844.15  3.89976
   2848.10  3.91431
   2852.05  3.92891
   2856.01  3.94356
   2859.97  3.95827
   2863.94  3.97304
   2867.91  3.98785
   2871.89  4.00275
   2875.87  4.01771
   2879.86  4.03273
   2883.86  4.04780
   2887.86  4.06293
   2891.86  4.07812
   2895.88  4.09336
   2899.89  4.10866
   2903.92  4.12402
   2907.95  4.13943
   2911.98  4.15490
   2916.02  4.17045
   2920.06  4.18609
   2924.11  4.20179
   2928.17  4.21755
   2932.23  4.23337
   2936.30  4.24925
   2940.37  4.26518
   2944.45  4.28118
   2948.54  4.29724
   2952.63  4.31335
   2956.72  4.32953
   2960.83  4.34577
   2964.93  4.36209
   2969.05  4.37847
   2973.17  4.39491
   2977.29  4.41142
   2981.42  4.42799
   2985.56  4.44462
   2989.70  4.46132
   2993.85  4.47808
   2998.00  4.49490
   3002.16  4.51178
   3006.32  4.52873
   3010.49  4.54574
   3014.67  4.56286
   3018.85  4.58005
   3023.04  4.59729
   3027.23  4.61461
   3031.43  4.63198
   3035.64  4.64943
   3039.85  4.66694
   3044.07  4.68451
   3048.29  4.70216
   3052.52  4.71987
   3056.75  4.73764
   3060.99  4.75551
   3065.24  4.77347
   3069.49  4.79149
   3073.75  4.80959
   3078.01  4.82775
   3082.28  4.84598
   3086.56  4.86428
   3090.84  4.88265
   3095.13  4.90109
   3099.42  4.91960
   3103.72  4.93817
   3108.03  4.95683
   3112.34  4.97557
   3116.66  4.99438
   3120.98  5.01327
   3125.31  5.03222
   3129.65  5.05125
   3133.99  5.07035
   3138.34  5.08952
   3142.69  5.10877
   3147.05  5.12809
   3151.42  5.14748
   3155.79  5.16694
   3160.17  5.18650
   3164.55  5.20618
   3168.94  5.22593
   3173.34  5.24575
   3177.74  5.26565
   3182.15  5.28562
   3186.56  5.30566
   3190.98  5.32579
   3195.41  5.34599
   3199.84  5.36627
   3204.28  5.38662
   3208.72  5.40705
   3213.18  5.42759
   3217.63  5.44821
   3222.10  5.46891
   3226.57  5.48969
   3231.04  5.51056
   3235.53  5.53150
   3240.01  5.55252
   3244.51  5.57363
   3249.01  5.59481
   3253.52  5.61607
   3258.03  5.63741
   3262.55  5.65885
   3267.08  5.68039
   3271.61  5.70201
   3276.15  5.72372
   3280.69  5.74551
   3285.24  5.76737
   3289.80  5.78932
   3294.36  5.81136
   3298.93  5.83348
   3303.51  5.85568
   3308.09  5.87796
   3312.68  5.90034
   3317.28  5.92285
   3321.88  5.94546
   3326.49  5.96817
   3331.10  5.99096
   3335.72  6.01383
   3340.35  6.03680
   3344.99  6.05985
   3349.63  6.08299
   3354.27  6.10622
   3358.93  6.12953
   3363.59  6.15294
   3368.25  6.17644
   3372.92  6.20004
   3377.60  6.22374
   3382.29  6.24754
   3386.98  6.27141
   3391.68  6.29539
   3396.39  6.31944
   3401.10  6.34361
   3405.81  6.36786
   3410.54  6.39219
   3415.27  6.41663
   3420.01  6.44116
   3424.75  6.46580
   3429.50  6.49057
   3434.26  6.51544
   3439.03  6.54039
   3443.80  6.56545
   3448.57  6.59059
   3453.36  6.61585
   3458.15  6.64119
   3462.95  6.66663
   3467.75  6.69217
   3472.56  6.71781
   3477.38  6.74354
   3482.20  6.76943
   3487.03  6.79542
   3491.87  6.82149
   3496.71  6.84769
   3501.57  6.87397
   3506.42  6.90036
   3511.29  6.92685
   3516.16  6.95344
   3521.04  6.98014
   3525.92  7.00694
   3530.81  7.03383
   3535.71  7.06085
   3540.61  7.08799
   3545.53  7.11522
   3550.45  7.14257
   3555.37  7.17001
   3560.30  7.19757
   3565.24  7.22524
   3570.19  7.25300
   3575.14  7.28088
   3580.10  7.30886
   3585.07  7.33694
   3590.04  7.36515
   3595.02  7.39352
   3600.01  7.42201
   3605.00  7.45062
   3610.00  7.47933
   3615.01  7.50816
   3620.03  7.53711
   3625.05  7.56615
   3630.08  7.59532
   3635.11  7.62459
   3640.16  7.65398
   3645.21  7.68348
   3650.26  7.71311
   3655.33  7.74287
   3660.40  7.77275
   3665.47  7.80273
   3670.56  7.83285
   3675.65  7.86308
   3680.75  7.89342
   3685.86  7.92388
   3690.97  7.95447
   3696.09  7.98516
   3701.22  8.01598
   3706.35  8.04691
   3711.49  8.07799
   3716.64  8.10921
   3721.80  8.14053
   3726.96  8.17199
   3732.13  8.20358
   3737.31  8.23527
   3742.49  8.26710
   3747.69  8.29905
   3752.88  8.33111
   3758.09  8.36331
   3763.30  8.39562
   3768.53  8.42808
   3773.75  8.46074
   3778.99  8.49351
   3784.23  8.52642
   3789.48  8.55946
   3794.74  8.59261
   3800.00  8.62591
   3805.27  8.65934
   3810.55  8.69288
   3815.84  8.72657
   3821.13  8.76037
   3826.43  8.79431
   3831.74  8.82841
   3837.06  8.86263
   3842.38  8.89699
   3847.71  8.93150
   3853.05  8.96612
   3858.39  9.00089
   3863.75  9.03580
   3869.11  9.07083
   3874.47  9.10601
   3879.85  9.14131
   3885.23  9.17676
   3890.62  9.21235
   3896.02  9.24813
   3901.42  9.28407
   3906.83  9.32015
   3912.25  9.35636
   3917.68  9.39272
   3923.12  9.42923
   3928.56  9.46586
   3934.01  9.50265
   3939.47  9.53956
   3944.93  9.57664
   3950.40  9.61386
   3955.88  9.65123
   3961.37  9.68879
   3966.87  9.72650
   3972.37  9.76434
   3977.88  9.80236
   3983.40  9.84051
   3988.93  9.87882
   3994.46  9.91728
   4000.00  9.95588
   4005.55  9.99465
   4011.11  10.0336
   4016.67  10.0726
   4022.24  10.1119
   4027.82  10.1513
   4033.41  10.1908
   4039.01  10.2305
   4044.61  10.2704
   4050.22  10.3104
   4055.84  10.3506
   4061.46  10.3909
   4067.10  10.4314
   4072.74  10.4720
   4078.39  10.5128
   4084.05  10.5538
   4089.71  10.5950
   4095.39  10.6363
   4101.07  10.6779
   4106.76  10.7196
   4112.46  10.7614
   4118.16  10.8035
   4123.87  10.8456
   4129.59  10.8880
   4135.32  10.9305
   4141.06  10.9732
   4146.80  11.0161
   4152.56  11.0591
   4158.32  11.1023
   4164.09  11.1457
   4169.86  11.1893
   4175.65  11.2330
   4181.44  11.2769
   4187.24  11.3209
   4193.05  11.3652
   4198.87  11.4096
   4204.69  11.4542
   4210.52  11.4989
   4216.37  11.5439
   4222.21  11.5890
   4228.07  11.6344
   4233.94  11.6799
   4239.81  11.7256
   4245.69  11.7715
   4251.58  11.8175
   4257.48  11.8638
   4263.39  11.9102
   4269.30  11.9568
   4275.22  12.0036
   4281.15  12.0506
   4287.09  12.0978
   4293.04  12.1452
   4299.00  12.1928
   4304.96  12.2406
   4310.93  12.2886
   4316.91  12.3368
   4322.90  12.3851
   4328.90  12.4337
   4334.90  12.4824
   4340.92  12.5314
   4346.94  12.5805
   4352.97  12.6298
   4359.01  12.6794
   4365.06  12.7291
   4371.11  12.7790
   4377.17  12.8292
   4383.25  12.8795
   4389.33  12.9301
   4395.42  12.9808
   4401.51  13.0317
   4407.62  13.0829
   4413.73  13.1342
   4419.86  13.1857
   4425.99  13.2375
   4432.13  13.2895
   4438.28  13.3418
   4444.44  13.3942
   4450.60  13.4468
   4456.77  13.4997
   4462.96  13.5528
   4469.15  13.6060
   4475.35  13.6595
   4481.56  13.7132
   4487.77  13.7671
   4494.00  13.8212
   4500.23  13.8756
   4506.48  13.9302
   4512.73  13.9850
   4518.99  14.0400
   4525.26  14.0953
   4531.54  14.1508
   4537.82  14.2065
   4544.12  14.2624
   4550.42  14.3185
   4556.73  14.3748
   4563.05  14.4314
   4569.38  14.4882
   4575.72  14.5453
   4582.07  14.6026
   4588.43  14.6601
   4594.79  14.7179
   4601.17  14.7759
   4607.55  14.8341
   4613.94  14.8925
   4620.34  14.9512
   4626.75  15.0101
   4633.17  15.0692
   4639.60  15.1286
   4646.04  15.1882
   4652.48  15.2482
   4658.93  15.3084
   4665.40  15.3688
   4671.87  15.4295
   4678.35  15.4903
   4684.84  15.5515
   4691.34  15.6129
   4697.85  15.6745
   4704.37  15.7364
   4710.89  15.7985
   4717.43  15.8608
   4723.97  15.9235
   4730.52  15.9864
   4737.09  16.0495
   4743.66  16.1129
   4750.24  16.1765
   4756.83  16.2404
   4763.43  16.3045
   4770.04  16.3690
   4776.65  16.4336
   4783.28  16.4985
   4789.92  16.5637
   4796.56  16.6291
   4803.21  16.6948
   4809.88  16.7609
   4816.55  16.8271
   4823.23  16.8936
   4829.92  16.9604
   4836.62  17.0275
   4843.33  17.0948
   4850.05  17.1624
   4856.78  17.2302
   4863.52  17.2983
   4870.26  17.3667
   4877.02  17.4355
   4883.79  17.5045
   4890.56  17.5738
   4897.35  17.6433
   4904.14  17.7132
   4910.94  17.7833
   4917.76  17.8537
   4924.58  17.9244
   4931.41  17.9953
   4938.25  18.0666
   4945.10  18.1381
   4951.96  18.2099
   4958.83  18.2820
   4965.71  18.3545
   4972.60  18.4272
   4979.50  18.5002
   4986.40  18.5735
   4993.32  18.6471
   5000.25  18.7209
   5007.19  18.7951
   5014.13  18.8696
   5021.09  18.9443
   5028.05  19.0194
   5035.03  19.0948
   5042.01  19.1706
   5049.01  19.2468
   5056.01  19.3232
   5063.03  19.3999
   5070.05  19.4770
   5077.08  19.5543
   5084.13  19.6320
   5091.18  19.7099
   5098.24  19.7882
   5105.31  19.8668
   5112.40  19.9457
   5119.49  20.0249
   5126.59  20.1045
   5133.70  20.1844
   5140.83  20.2645
   5147.96  20.3451
   5155.10  20.4259
   5162.25  20.5070
   5169.41  20.5885
   5176.58  20.6703
   5183.76  20.7524
   5190.96  20.8349
   5198.16  20.9177
   5205.37  21.0008
   5212.59  21.0843
   5219.82  21.1681
   5227.06  21.2523
   5234.31  21.3368
   5241.57  21.4215
   5248.85  21.5067
   5256.13  21.5922
   5263.42  21.6780
   5270.72  21.7642
   5278.03  21.8507
   5285.35  21.9377
   5292.69  22.0250
   5300.03  22.1127
   5307.38  22.2007
   5314.74  22.2891
   5322.12  22.3779
   5329.50  22.4670
   5336.89  22.5564
   5344.30  22.6462
   5351.71  22.7364
   5359.13  22.8268
   5366.57  22.9178
   5374.01  23.0091
   5381.47  23.1007
   5388.93  23.1927
   5396.41  23.2851
   5403.90  23.3779
   5411.39  23.4710
   5418.90  23.5645
   5426.42  23.6584
   5433.95  23.7527
   5441.48  23.8473
   5449.03  23.9423
   5456.59  24.0378
   5464.16  24.1337
   5471.74  24.2300
   5479.33  24.3266
   5486.93  24.4237
   5494.54  24.5211
   5502.17  24.6190
   5509.80  24.7172
   5517.44  24.8158
   5525.10  24.9148
   5532.76  25.0142
   5540.44  25.1140
   5548.12  25.2143
   5555.82  25.3150
   5563.53  25.4161
   5571.25  25.5176
   5578.97  25.6195
   5586.71  25.7218
   5594.46  25.8245
   5602.23  25.9277
   5610.00  26.0312
   5617.78  26.1352
   5625.57  26.2395
   5633.38  26.3444
   5641.19  26.4497
   5649.02  26.5554
   5656.85  26.6615
   5664.70  26.7681
   5672.56  26.8751
   5680.43  26.9825
   5688.31  27.0904
   5696.20  27.1986
   5704.10  27.3074
   5712.02  27.4166
   5719.94  27.5261
   5727.88  27.6363
   5735.82  27.7468
   5743.78  27.8578
   5751.75  27.9693
   5759.73  28.0811
   5767.72  28.1935
   5775.72  28.3063
   5783.73  28.4195
   5791.75  28.5332
   5799.79  28.6474
   5807.83  28.7619
   5815.89  28.8771
   5823.96  28.9926
   5832.04  29.1087
   5840.13  29.2252
   5848.23  29.3422
   5856.34  29.4597
   5864.47  29.5777
   5872.60  29.6960
   5880.75  29.8149
   5888.91  29.9343
   5897.08  30.0541
   5905.26  30.1744
   5913.45  30.2954
   5921.65  30.4168
   5929.87  30.5388
   5938.09  30.6612
   5946.33  30.7841
   5954.58  30.9076
   5962.84  31.0314
   5971.11  31.1559
   5979.40  31.2808
   5987.69  31.4061
   5996.00  31.5320
   6004.32  31.6585
   6012.65  31.7855
   6020.99  31.9131
   6029.34  32.0411
   6037.70  32.1697
   6046.08  32.2988
   6054.47  32.4284
   6062.87  32.5585
   6071.28  32.6892
   6079.70  32.8203
   6088.13  32.9521
   6096.58  33.0842
   6105.04  33.2171
   6113.51  33.3505
   6121.99  33.4843
   6130.48  33.6187
   6138.98  33.7537
   6147.50  33.8892
   6156.03  34.0253
   6164.57  34.1619
   6173.12  34.2990
   6181.68  34.4367
   6190.26  34.5749
   6198.85  34.7137
   6207.45  34.8532
   6216.06  34.9932
   6224.68  35.1338
   6233.32  35.2749
   6241.96  35.4166
   6250.62  35.5589
   6259.29  35.7017
   6267.98  35.8451
   6276.67  35.9891
   6285.38  36.1336
   6294.10  36.2788
   6302.83  36.4245
   6311.57  36.5708
   6320.33  36.7178
   6329.10  36.8653
   6337.88  37.0133
   6346.67  37.1621
   6355.48  37.3117
   6364.29  37.4621
   6373.12  37.6131
   6381.96  37.7647
   6390.82  37.9170
   6399.68  38.0698
   6408.56  38.2232
   6417.45  38.3773
   6426.35  38.5320
   6435.27  38.6872
   6444.19  38.8430
   6453.13  38.9993
   6462.09  39.1562
   6471.05  39.3138
   6480.03  39.4720
   6489.02  39.6309
   6498.02  39.7904
   6507.03  39.9505
   6516.06  40.1113
   6525.10  40.2727
   6534.15  40.4347
   6543.22  40.5976
   6552.29  40.7611
   6561.38  40.9253
   6570.49  41.0902
   6579.60  41.2557
   6588.73  41.4219
   6597.87  41.5888
   6607.02  41.7563
   6616.19  41.9245
   6625.37  42.0934
   6634.56  42.2629
   6643.76  42.4333
   6652.98  42.6045
   6662.21  42.7763
   6671.45  42.9489
   6680.70  43.1222
   6689.97  43.2962
   6699.25  43.4709
   6708.55  43.6462
   6717.85  43.8223
   6727.17  43.9992
   6736.50  44.1766
   6745.85  44.3549
   6755.21  44.5338
   6764.58  44.7136
   6773.96  44.8942
   6783.36  45.0753
   6792.77  45.2573
   6802.19  45.4400
   6811.63  45.6234
   6821.08  45.8076
   6830.54  45.9925
   6840.02  46.1781
   6849.51  46.3645
   6859.01  46.5516
   6868.52  46.7396
   6878.05  46.9284
   6887.59  47.1179
   6897.15  47.3082
   6906.72  47.4993
   6916.30  47.6910
   6925.89  47.8836
   6935.50  48.0770
   6945.12  48.2711
   6954.76  48.4661
   6964.40  48.6617
   6974.07  48.8584
   6983.74  49.0559
   6993.43  49.2542
   7003.13  49.4533
   7012.85  49.6533
   7022.57  49.8540
   7032.32  50.0555
   7042.07  50.2579
   7051.84  50.4610
   7061.62  50.6650
   7071.42  50.8698
   7081.23  51.0754
   7091.05  51.2821
   7100.89  51.4895
   7110.74  51.6978
   7120.61  51.9069
   7130.48  52.1169
   7140.38  52.3277
   7150.28  52.5393
   7160.20  52.7519
   7170.13  52.9653
   7180.08  53.1795
   7190.04  53.3946
   7200.02  53.6107
   7210.00  53.8276
   7220.01  54.0455
   7230.02  54.2643
   7240.05  54.4839
   7250.10  54.7044
   7260.15  54.9258
   7270.23  55.1481
   7280.31  55.3714
   7290.41  55.5954
   7300.52  55.8204
   7310.65  56.0464
   7320.79  56.2734
   7330.95  56.5015
   7341.12  56.7305
   7351.30  56.9603
   7361.50  57.1911
   7371.71  57.4228
   7381.94  57.6555
   7392.18  57.8892
   7402.44  58.1237
   7412.70  58.3592
   7422.99  58.5957
   7433.29  58.8331
   7443.60  59.0716
   7453.92  59.3111
   7464.26  59.5515
   7474.62  59.7929
   7484.99  60.0353
   7495.37  60.2787
   7505.77  60.5230
   7516.18  60.7683
   7526.61  61.0147
   7537.05  61.2620
   7547.51  61.5103
   7557.98  61.7597
   7568.46  62.0103
   7578.96  62.2617
   7589.47  62.5143
   7600.00  62.7677
   7610.55  63.0223
   7621.10  63.2780
   7631.68  63.5345
   7642.26  63.7922
   7652.87  64.0510
   7663.48  64.3106
   7674.11  64.5715
   7684.76  64.8335
   7695.42  65.0968
   7706.10  65.3611
   7716.79  65.6264
   7727.49  65.8928
   7738.21  66.1604
   7748.95  66.4289
   7759.70  66.6986
   7770.46  66.9694
   7781.24  67.2411
   7792.03  67.5141
   7802.84  67.7882
   7813.67  68.0635
   7824.51  68.3400
   7835.36  68.6175
   7846.23  68.8962
   7857.12  69.1761
   7868.02  69.4570
   7878.93  69.7391
   7889.86  70.0224
   7900.81  70.3067
   7911.77  70.5922
   7922.74  70.8788
   7933.73  71.1669
   7944.74  71.4563
   7955.76  71.7466
   7966.80  72.0383
   7977.85  72.3311
   7988.92  72.6250
   8000.00  72.9202
   8011.10  73.2167
   8022.21  73.5142
   8033.34  73.8130
   8044.48  74.1130
   8055.64  74.4143
   8066.82  74.7170
   8078.01  75.0208
   8089.22  75.3260
   8100.44  75.6324
   8111.68  75.9399
   8122.93  76.2487
   8134.20  76.5589
   8145.48  76.8701
   8156.78  77.1828
   8168.10  77.4965
   8179.43  77.8117
   8190.78  78.1284
   8202.14  78.4462
   8213.52  78.7654
   8224.91  79.0860
   8236.32  79.4077
   8247.75  79.7309
   8259.19  80.0553
   8270.65  80.3809
   8282.12  80.7080
   8293.61  81.0363
   8305.11  81.3660
   8316.64  81.6972
   8328.17  82.0298
   8339.73  82.3639
   8351.30  82.6993
   8362.88  83.0359
   8374.48  83.3741
   8386.10  83.7135
   8397.73  84.0544
   8409.38  84.3967
   8421.05  84.7402
   8432.73  85.0853
   8444.43  85.4318
   8456.14  85.7797
   8467.87  86.1292
   8479.62  86.4801
   8491.39  86.8323
   8503.17  87.1861
   8514.96  87.5413
   8526.77  87.8978
   8538.60  88.2559
   8550.45  88.6152
   8562.31  88.9763
   8574.19  89.3387
   8586.08  89.7025
   8597.99  90.0683
   8609.92  90.4355
   8621.87  90.8041
   8633.83  91.1743
   8645.80  91.5461
   8657.80  91.9191
   8669.81  92.2939
   8681.83  92.6700
   8693.88  93.0478
   8705.94  93.4271
   8718.02  93.8078
   8730.11  94.1904
   8742.22  94.5747
   8754.35  94.9603
   8766.49  95.3477
   8778.66  95.7365
   8790.83  96.1271
   8803.03  96.5192
   8815.24  96.9127
   8827.47  97.3081
   8839.72  97.7050
   8851.98  98.1033
   8864.26  98.5035
   8876.56  98.9054
   8888.87  99.3088
   8901.20  99.7140
   8913.55  100.121
   8925.92  100.529
   8938.30  100.939
   8950.70  101.351
   8963.11  101.764
   8975.55  102.180
   8988.00  102.596
   9000.47  103.015
   9012.95  103.435
   9025.46  103.858
   9037.98  104.282
   9050.52  104.707
   9063.07  105.135
   9075.64  105.564
   9088.23  105.995
   9100.84  106.428
   9113.47  106.863
   9126.11  107.299
   9138.77  107.737
   9151.45  108.177
   9164.14  108.619
   9176.86  109.063
   9189.59  109.508
   9202.33  109.955
   9215.10  110.405
   9227.88  110.855
   9240.69  111.308
   9253.51  111.763
   9266.34  112.219
   9279.20  112.677
   9292.07  113.138
   9304.96  113.599
   9317.87  114.064
   9330.79  114.530
   9343.74  114.998
   9356.70  115.468
   9369.68  115.939
   9382.68  116.413
   9395.70  116.888
   9408.73  117.366
   9421.78  117.845
   9434.85  118.327
   9447.94  118.810
   9461.05  119.296
   9474.17  119.783
   9487.32  120.273
   9500.48  120.765
   9513.66  121.259
   9526.85  121.755
   9540.07  122.253
   9553.31  122.752
   9566.56  123.254
   9579.83  123.758
   9593.12  124.264
   9606.43  124.772
   9619.75  125.282
   9633.10  125.795
   9646.46  126.309
   9659.84  126.826
   9673.25  127.345
   9686.67  127.866
   9700.10  128.389
   9713.56  128.914
   9727.03  129.441
   9740.53  129.970
   9754.04  130.502
   9767.57  131.036
   9781.12  131.572
   9794.69  132.110
   9808.28  132.651
   9821.89  133.194
   9835.51  133.739
   9849.16  134.286
   9862.82  134.835
   9876.50  135.387
   9890.20  135.941
   9903.92  136.497
   9917.66  137.055
   9931.42  137.616
   9945.20  138.180
   9958.99  138.745
   9972.81  139.313
   9986.64  139.883
   10000.5  140.456
   10014.4  141.031
   10028.3  141.608
   10042.2  142.187
   10056.1  142.769
   10070.1  143.354
   10084.0  143.941
   10098.0  144.530
   10112.0  145.122
   10126.1  145.717
   10140.1  146.314
   10154.2  146.913
   10168.3  147.515
   10182.4  148.119
   10196.5  148.726
   10210.6  149.335
   10224.8  149.946
   10239.0  150.560
   10253.2  151.177
   10267.4  151.797
   10281.7  152.419
   10295.9  153.043
   10310.2  153.670
   10324.5  154.299
   10338.8  154.931
   10353.2  155.566
   10367.5  156.203
   10381.9  156.843
   10396.3  157.485
   10410.7  158.131
   10425.2  158.779
   10439.6  159.430
   10454.1  160.083
   10468.6  160.740
   10483.1  161.399
   10497.7  162.060
   10512.3  162.725
   10526.8  163.392
   10541.4  164.061
   10556.1  164.734
   10570.7  165.409
   10585.4  166.087
   10600.1  166.768
   10614.8  167.451
   10629.5  168.138
   10644.2  168.827
   10659.0  169.519
   10673.8  170.214
   10688.6  170.912
   10703.4  171.612
   10718.3  172.316
   10733.1  173.022
   10748.0  173.731
   10762.9  174.444
   10777.9  175.159
   10792.8  175.878
   10807.8  176.600
   10822.8  177.324
   10837.8  178.051
   10852.8  178.782
   10867.9  179.515
   10883.0  180.251
   10898.1  180.991
   10913.2  181.733
   10928.3  182.478
   10943.5  183.226
   10958.7  183.978
   10973.9  184.733
   10989.1  185.490
   11004.3  186.251
   11019.6  187.015
   11034.9  187.782
   11050.2  188.552
   11065.5  189.325
   11080.9  190.101
   11096.2  190.881
   11111.6  191.664
   11127.1  192.451
   11142.5  193.241
   11157.9  194.034
   11173.4  194.830
   11188.9  195.630
   11204.5  196.432
   11220.0  197.238
   11235.6  198.048
   11251.1  198.860
   11266.8  199.676
   11282.4  200.495
   11298.0  201.319
   11313.7  202.145
   11329.4  202.975
   11345.1  203.808
   11360.9  204.645
   11376.6  205.484
   11392.4  206.328
   11408.2  207.174
   11424.0  208.024
   11439.9  208.878
   11455.8  209.735
   11471.6  210.596
   11487.6  211.461
   11503.5  212.329
   11519.5  213.200
   11535.4  214.076
   11551.4  214.954
   11567.5  215.837
   11583.5  216.723
   11599.6  217.612
   11615.7  218.505
   11631.8  219.402
   11647.9  220.302
   11664.1  221.207
   11680.3  222.115
   11696.5  223.028
   11712.7  223.944
   11728.9  224.863
   11745.2  225.787
   11761.5  226.714
   11777.8  227.645
   11794.2  228.580
   11810.5  229.518
   11826.9  230.460
   11843.3  231.407
   11859.7  232.357
   11876.2  233.312
   11892.7  234.270
   11909.2  235.232
   11925.7  236.198
   11942.2  237.168
   11958.8  238.142
   11975.4  239.120
   11992.0  240.102
   12008.6  241.088
   12025.3  242.078
   12042.0  243.072
   12058.7  244.070
   12075.4  245.073
   12092.2  246.079
   12108.9  247.090
   12125.7  248.104
   12142.6  249.123
   12159.4  250.146
   12176.3  251.173
   12193.2  252.205
   12210.1  253.240
   12227.0  254.280
   12244.0  255.325
   12261.0  256.374
   12278.0  257.426
   12295.0  258.484
   12312.1  259.545
   12329.1  260.611
   12346.2  261.681
   12363.4  262.756
   12380.5  263.835
   12397.7  264.918
   12414.9  266.005
   12432.1  267.098
   12449.4  268.196
   12466.6  269.298
   12483.9  270.405
   12501.2  271.515
   12518.6  272.631
   12536.0  273.751
   12553.3  274.875
   12570.8  276.004
   12588.2  277.138
   12605.7  278.276
   12623.1  279.419
   12640.7  280.567
   12658.2  281.720
   12675.8  282.878
   12693.3  284.039
   12711.0  285.206
   12728.6  286.378
   12746.2  287.554
   12763.9  288.735
   12781.6  289.921
   12799.4  291.111
   12817.1  292.307
   12834.9  293.507
   12852.7  294.714
   12870.5  295.925
   12888.4  297.140
   12906.3  298.361
   12924.2  299.587
   12942.1  300.817
   12960.1  302.053
   12978.0  303.293
   12996.0  304.538
   13014.1  305.789
   13032.1  307.044
   13050.2  308.306
   13068.3  309.573
   13086.4  310.844
   13104.6  312.121
   13122.8  313.403
   13141.0  314.689
   13159.2  315.982
   13177.5  317.279
   13195.7  318.581
   13214.0  319.889
   13232.4  321.202
   13250.7  322.522
   13269.1  323.847
   13287.5  325.178
   13306.0  326.514
   13324.4  327.856
   13342.9  329.202
   13361.4  330.555
   13379.9  331.913
   13398.5  333.276
   13417.1  334.645
   13435.7  336.019
   13454.3  337.399
   13473.0  338.785
   13491.7  340.176
   13510.4  341.573
   13529.2  342.976
   13547.9  344.384
   13566.7  345.798
   13585.5  347.217
   13604.4  348.643
   13623.3  350.074
   13642.2  351.511
   13661.1  352.954
   13680.0  354.403
   13699.0  355.859
   13718.0  357.320
   13737.0  358.788
   13756.1  360.261
   13775.2  361.741
   13794.3  363.225
   13813.4  364.717
   13832.6  366.214
   13851.8  367.717
   13871.0  369.227
   13890.2  370.742
   13909.5  372.264
   13928.8  373.794
   13948.1  375.329
   13967.5  376.870
   13986.9  378.417
   14006.3  379.971
   14025.7  381.531
   14045.1  383.097
   14064.6  384.669
   14084.1  386.248
   14103.7  387.834
   14123.2  389.425
   14142.8  391.023
   14162.5  392.629
   14182.1  394.239
   14201.8  395.857
   14221.5  397.481
   14241.2  399.112
   14261.0  400.749
   14280.8  402.393
   14300.6  404.043
   14320.4  405.701
   14340.3  407.364
   14360.2  409.036
   14380.1  410.715
   14400.0  412.401
   14420.0  414.094
   14440.0  415.793
   14460.0  417.499
   14480.1  419.213
   14500.2  420.932
   14520.3  422.659
   14540.5  424.394
   14560.6  426.134
   14580.8  427.882
   14601.0  429.638
   14621.3  431.400
   14641.6  433.170
   14661.9  434.946
   14682.2  436.730
   14702.6  438.521
   14723.0  440.319
   14743.4  442.124
   14763.9  443.937
   14784.4  445.756
   14804.9  447.584
   14825.4  449.419
   14846.0  451.262
   14866.6  453.113
   14887.2  454.971
   14907.8  456.837
   14928.5  458.710
   14949.2  460.590
   14970.0  462.478
   14990.7  464.374
   15011.5  466.277
   15032.4  468.190
   15053.2  470.109
   15074.1  472.038
   15095.0  473.975
   15116.0  475.919
   15136.9  477.872
   15157.9  479.832
   15178.9  481.799
   15200.0  483.775
   15221.1  485.759
   15242.2  487.750
   15263.4  489.750
   15284.5  491.757
   15305.7  493.773
   15327.0  495.798
   15348.2  497.831
   15369.5  499.872
   15390.8  501.922
   15412.2  503.978
   15433.6  506.044
   15455.0  508.118
   15476.4  510.199
   15497.9  512.290
   15519.4  514.388
   15540.9  516.495
   15562.5  518.613
   15584.1  520.739
   15605.7  522.874
   15627.3  525.017
   15649.0  527.168
   15670.7  529.329
   15692.5  531.498
   15714.2  533.675
   15736.0  535.861
   15757.9  538.055
   15779.7  540.259
   15801.6  542.472
   15823.5  544.694
   15845.5  546.926
   15867.5  549.167
   15889.5  551.416
   15911.5  553.675
   15933.6  555.941
   15955.7  558.218
   15977.8  560.503
   16000.0  562.797
   16020.1  564.886
   16040.3  566.982
   16060.5  569.086
   16080.7  571.200
   16100.9  573.320
   16121.1  575.448
   16141.4  577.584
   16161.7  579.728
   16182.1  581.879
   16202.4  584.038
   16222.8  586.205
   16243.2  588.379
   16263.6  590.561
   16284.1  592.751
   16304.6  594.949
   16325.1  597.156
   16345.6  599.372
   16366.2  601.597
   16386.8  603.828
   16407.4  606.068
   16428.1  608.315
   16448.7  610.572
   16469.4  612.835
   16490.1  615.107
   16510.9  617.388
   16531.6  619.676
   16552.4  621.972
   16573.3  624.276
   16594.1  626.592
   16615.0  628.915
   16635.9  631.246
   16656.8  633.586
   16677.8  635.934
   16698.8  638.290
   16719.8  640.656
   16740.8  643.029
   16761.9  645.410
   16782.9  647.800
   16804.1  650.199
   16825.2  652.606
   16846.4  655.022
   16867.6  657.448
   16888.8  659.884
   16910.0  662.328
   16931.3  664.779
   16952.6  667.241
   16973.9  669.711
   16995.3  672.189
   17016.7  674.678
   17038.1  677.173
   17059.5  679.678
   17081.0  682.192
   17102.4  684.716
   17124.0  687.248
   17145.5  689.792
   17167.1  692.346
   17188.7  694.908
   17210.3  697.479
   17231.9  700.059
   17253.6  702.649
   17275.3  705.247
   17297.1  707.855
   17318.8  710.473
   17340.6  713.099
   17362.4  715.734
   17384.3  718.379
   17406.1  721.035
   17428.0  723.701
   17449.9  726.377
   17471.9  729.063
   17493.9  731.757
   17515.9  734.461
   17537.9  737.174
   17560.0  739.898
   17582.1  742.631
   17604.2  745.373
   17626.3  748.126
   17648.5  750.888
   17670.7  753.659
   17692.9  756.443
   17715.2  759.238
   17737.5  762.041
   17759.8  764.854
   17782.1  767.679
   17804.5  770.512
   17826.9  773.355
   17849.3  776.208
   17871.8  779.072
   17894.3  781.946
   17916.8  784.829
   17939.3  787.724
   17961.9  790.627
   17984.5  793.544
   18007.1  796.473
   18029.8  799.410
   18052.5  802.358
   18075.2  805.316
   18097.9  808.286
   18120.7  811.264
   18143.5  814.254
   18166.3  817.253
   18189.1  820.265
   18212.0  823.286
   18234.9  826.317
   18257.9  829.361
   18280.8  832.417
   18303.8  835.483
   18326.9  838.562
   18349.9  841.650
   18373.0  844.749
   18396.1  847.858
   18419.3  850.980
   18442.4  854.111
   18465.6  857.253
   18488.9  860.406
   18512.1  863.572
   18535.4  866.747
   18558.7  869.935
   18582.1  873.138
   18605.5  876.351
   18628.9  879.575
   18652.3  882.810
   18675.8  886.057
   18699.3  889.315
   18722.8  892.584
   18746.3  895.866
   18769.9  899.157
   18793.5  902.460
   18817.2  905.776
   18840.8  909.102
   18864.5  912.442
   18888.3  915.794
   18912.0  919.160
   18935.8  922.535
   18959.7  925.923
   18983.5  929.323
   19007.4  932.734
   19031.3  936.157
   19055.2  939.591
   19079.2  943.039
   19103.2  946.497
   19127.2  949.967
   19151.3  953.451
   19175.4  956.948
   19199.5  960.458
   19223.7  963.980
   19247.9  967.515
   19272.1  971.062
   19296.3  974.620
   19320.6  978.192
   19344.9  981.775
   19369.2  985.370
   19393.6  988.977
   19418.0  992.599
   19442.4  996.231
   19466.9  999.877
   19491.4  1003.54
   19515.9  1007.22
   19540.4  1010.90
   19565.0  1014.60
   19589.6  1018.32
   19614.3  1022.04
   19639.0  1025.78
   19663.7  1029.53
   19688.4  1033.30
   19713.2  1037.08
   19738.0  1040.87
   19762.8  1044.67
   19787.7  1048.49
   19812.6  1052.32
   19837.5  1056.17
   19862.4  1060.03
   19887.4  1063.90
   19912.4  1067.79
   19937.5  1071.69
   19962.6  1075.60
   19987.7  1079.52
   20012.8  1083.47
   20038.0  1087.43
   20063.2  1091.40
   20088.5  1095.39
   20113.7  1099.40
   20139.0  1103.41
   20164.4  1107.44
   20189.7  1111.49
   20215.1  1115.55
   20240.6  1119.62
   20266.0  1123.71
   20291.5  1127.81
   20317.0  1131.92
   20342.6  1136.05
   20368.2  1140.20
   20393.8  1144.35
   20419.5  1148.52
   20445.2  1152.71
   20470.9  1156.91
   20496.6  1161.13
   20522.4  1165.36
   20548.2  1169.60
   20574.1  1173.86
   20600.0  1178.13
   20625.9  1182.42
   20651.8  1186.72
   20677.8  1191.04
   20703.8  1195.37
   20729.9  1199.71
   20755.9  1204.07
   20782.1  1208.45
   20808.2  1212.84
   20834.4  1217.25
   20860.6  1221.67
   20886.8  1226.11
   20913.1  1230.56
   20939.4  1235.03
   20965.8  1239.51
   20992.1  1244.01
   21018.5  1248.52
   21045.0  1253.04
   21071.5  1257.58
   21098.0  1262.14
   21124.5  1266.72
   21151.1  1271.31
   21177.7  1275.92
   21204.3  1280.54
   21231.0  1285.17
   21257.7  1289.83
   21284.5  1294.49
   21311.2  1299.18
   21338.0  1303.87
   21364.9  1308.59
   21391.8  1313.32
   21418.7  1318.07
   21445.6  1322.83
   21472.6  1327.61
   21499.6  1332.40
   21526.7  1337.21
   21553.7  1342.04
   21580.9  1346.88
   21608.0  1351.74
   21635.2  1356.62
   21662.4  1361.51
   21689.7  1366.42
   21716.9  1371.34
   21744.3  1376.28
   21771.6  1381.24
   21799.0  1386.21
   21826.4  1391.21
   21853.9  1396.21
   21881.4  1401.24
   21908.9  1406.28
   21936.5  1411.34
   21964.1  1416.41
   21991.7  1421.50
   22019.4  1426.61
   22047.1  1431.74
   22074.8  1436.88
   22102.6  1442.03
   22130.4  1447.21
   22158.2  1452.41
   22186.1  1457.62
   22214.0  1462.85
   22241.9  1468.10
   22269.9  1473.36
   22297.9  1478.64
   22326.0  1483.94
   22354.1  1489.26
   22382.2  1494.59
   22410.4  1499.94
   22438.5  1505.31
   22466.8  1510.69
   22495.0  1516.09
   22523.3  1521.52
   22551.7  1526.96
   22580.0  1532.41
   22608.4  1537.89
   22636.9  1543.38
   22665.4  1548.89
   22693.9  1554.42
   22722.4  1559.97
   22751.0  1565.53
   22779.6  1571.11
   22808.3  1576.71
   22837.0  1582.33
   22865.7  1587.97
   22894.5  1593.63
   22923.3  1599.30
   22952.1  1605.00
   22981.0  1610.71
   23009.9  1616.44
   23038.8  1622.19
   23067.8  1627.96
   23096.8  1633.74
   23125.9  1639.55
   23155.0  1645.37
   23184.1  1651.21
   23213.3  1657.07
   23242.5  1662.95
   23271.7  1668.85
   23301.0  1674.77
   23330.3  1680.71
   23359.7  1686.66
   23389.1  1692.64
   23418.5  1698.64
   23447.9  1704.65
   23477.4  1710.68
   23507.0  1716.73
   23536.5  1722.80
   23566.2  1728.89
   23595.8  1735.00
   23625.5  1741.13
   23655.2  1747.28
   23685.0  1753.45
   23714.8  1759.64
   23744.6  1765.85
   23774.5  1772.08
   23804.4  1778.32
   23834.3  1784.59
   23864.3  1790.88
   23894.3  1797.18
   23924.4  1803.51
   23954.5  1809.86
   23984.6  1816.22
   24014.8  1822.61
   24045.0  1829.02
   24075.3  1835.45
   24105.5  1841.90
   24135.9  1848.37
   24166.2  1854.86
   24196.6  1861.37
   24227.1  1867.89
   24257.5  1874.44
   24288.1  1881.01
   24318.6  1887.60
   24349.2  1894.21
   24379.8  1900.85
   24410.5  1907.50
   24441.2  1914.18
   24472.0  1920.87
   24502.8  1927.59
   24533.6  1934.33
   24564.4  1941.09
   24595.3  1947.86
   24626.3  1954.66
   24657.3  1961.48
   24688.3  1968.32
   24719.3  1975.18
   24750.4  1982.07
   24781.6  1988.98
   24812.7  1995.90
   24844.0  2002.85
   24875.2  2009.82
   24906.5  2016.81
   24937.8  2023.83
   24969.2  2030.86
   25000.6  2037.92
   25032.1  2044.99
   25063.6  2052.09
   25095.1  2059.21
   25126.7  2066.35
   25158.3  2073.51
   25189.9  2080.69
   25221.6  2087.91
   25253.3  2095.14
   25285.1  2102.39
   25316.9  2109.66
   25348.8  2116.96
   25380.7  2124.27
   25412.6  2131.61
   25444.6  2138.97
   25476.6  2146.36
   25508.6  2153.76
   25540.7  2161.19
   25572.8  2168.64
   25605.0  2176.11
   25637.2  2183.61
   25669.5  2191.13
   25701.8  2198.67
   25734.1  2206.24
   25766.5  2213.83
   25798.9  2221.43
   25831.3  2229.06
   25863.8  2236.72
   25896.4  2244.40
   25929.0  2252.09
   25961.6  2259.81
   25994.2  2267.56
   26026.9  2275.33
   26059.7  2283.12
   26092.5  2290.94
   26125.3  2298.78
   26158.1  2306.63
   26191.1  2314.52
   26224.0  2322.42
   26257.0  2330.35
   26290.0  2338.30
   26323.1  2346.28
   26356.2  2354.28
   26389.4  2362.30
   26422.6  2370.34
   26455.8  2378.42
   26489.1  2386.51
   26522.4  2394.63
   26555.8  2402.77
   26589.2  2410.94
   26622.6  2419.12
   26656.1  2427.33
   26689.7  2435.57
   26723.2  2443.83
   26756.9  2452.11
   26790.5  2460.41
   26824.2  2468.75
   26858.0  2477.10
   26891.7  2485.48
   26925.6  2493.88
   26959.5  2502.31
   26993.4  2510.76
   27027.3  2519.23
   27061.3  2527.73
   27095.4  2536.25
   27129.5  2544.80
   27163.6  2553.37
   27197.8  2561.96
   27232.0  2570.58
   27266.2  2579.22
   27300.5  2587.89
   27334.9  2596.59
   27369.3  2605.30
   27403.7  2614.05
   27438.2  2622.82
   27472.7  2631.61
   27507.2  2640.43
   27541.8  2649.27
   27576.5  2658.13
   27611.2  2667.02
   27645.9  2675.94
   27680.7  2684.87
   27715.5  2693.83
   27750.4  2702.83
   27785.3  2711.85
   27820.3  2720.88
   27855.3  2729.95
   27890.3  2739.04
   27925.4  2748.15
   27960.5  2757.29
   27995.7  2766.46
   28030.9  2775.65
   28066.2  2784.86
   28101.5  2794.09
   28136.8  2803.36
   28172.2  2812.65
   28207.7  2821.96
   28243.2  2831.31
   28278.7  2840.67
   28314.3  2850.06
   28349.9  2859.47
   28385.5  2868.92
   28421.2  2878.38
   28457.0  2887.87
   28492.8  2897.39
   28528.6  2906.92
   28564.5  2916.49
   28600.5  2926.08
   28636.4  2935.70
   28672.5  2945.35
   28708.5  2955.02
   28744.7  2964.72
   28780.8  2974.45
   28817.0  2984.19
   28853.3  2993.97
   28889.6  3003.77
   28925.9  3013.59
   28962.3  3023.44
   28998.7  3033.32
   29035.2  3043.22
   29071.8  3053.15
   29108.3  3063.10
   29144.9  3073.09
   29181.6  3083.10
   29218.3  3093.13
   29255.1  3103.20
   29291.9  3113.28
   29328.7  3123.39
   29365.6  3133.53
   29402.6  3143.69
   29439.6  3153.88
   29476.6  3164.09
   29513.7  3174.33
   29550.8  3184.60
   29588.0  3194.89
   29625.2  3205.22
   29662.5  3215.56
   29699.8  3225.93
   29737.1  3236.33
   29774.6  3246.75
   29812.0  3257.20
   29849.5  3267.67
   29887.1  3278.18
   29924.7  3288.70
   29962.3  3299.25
   30000.0  3309.83

