# progression for http://henke.lbl.gov/optical_constants/atten2.html
# 100eV-500eV always in 500 steps, 500-1000eV, 1000-2000, 2000-4000, 4000-8000, 8000-16000, 16000-30000
# Y3Al5O12 Density=4.56, Angle=90.deg
# Photon Energy (eV), Atten Length (microns)
   100.000  4.509718E-02
   100.322  4.519273E-02
   100.646  4.528758E-02
   100.970  4.538176E-02
   101.296  4.547522E-02
   101.622  4.556800E-02
   101.950  4.566006E-02
   102.279  4.575143E-02
   102.609  4.584472E-02
   102.939  4.593935E-02
   103.271  4.603329E-02
   103.604  4.612659E-02
   103.938  4.621920E-02
   104.273  4.631908E-02
   104.610  4.642403E-02
   104.947  4.652845E-02
   105.285  4.663234E-02
   105.625  4.673567E-02
   105.965  4.683848E-02
   106.307  4.694073E-02
   106.649  4.704244E-02
   106.993  4.714359E-02
   107.338  4.724420E-02
   107.684  4.734423E-02
   108.032  4.744370E-02
   108.380  4.754260E-02
   108.729  4.764094E-02
   109.080  4.773870E-02
   109.431  4.783587E-02
   109.784  4.793245E-02
   110.138  4.802844E-02
   110.493  4.812387E-02
   110.850  4.821868E-02
   111.207  4.831287E-02
   111.566  4.840644E-02
   111.925  4.849942E-02
   112.286  4.859178E-02
   112.648  4.868357E-02
   113.011  4.877438E-02
   113.376  4.886441E-02
   113.741  4.895381E-02
   114.108  4.904263E-02
   114.476  4.913080E-02
   114.845  4.921837E-02
   115.215  4.930532E-02
   115.587  4.939165E-02
   115.959  4.947734E-02
   116.333  4.956243E-02
   116.708  4.964682E-02
   117.084  4.973056E-02
   117.462  4.981368E-02
   117.841  4.989615E-02
   118.221  4.997799E-02
   118.602  5.005922E-02
   118.984  5.013984E-02
   119.368  5.021980E-02
   119.753  5.029911E-02
   120.139  5.037779E-02
   120.526  5.045582E-02
   120.915  5.053317E-02
   121.304  5.060989E-02
   121.695  5.068595E-02
   122.088  5.076138E-02
   122.481  5.083540E-02
   122.876  5.090854E-02
   123.272  5.098098E-02
   123.670  5.105278E-02
   124.069  5.112391E-02
   124.469  5.127478E-02
   124.870  5.145173E-02
   125.273  5.162898E-02
   125.676  5.180649E-02
   126.082  5.198429E-02
   126.488  5.218591E-02
   126.896  5.239511E-02
   127.305  5.260489E-02
   127.715  5.281524E-02
   128.127  5.302618E-02
   128.540  5.323751E-02
   128.955  5.344937E-02
   129.370  5.366180E-02
   129.788  5.387482E-02
   130.206  5.408842E-02
   130.626  5.429973E-02
   131.047  5.451087E-02
   131.469  5.472251E-02
   131.893  5.493467E-02
   132.319  5.514734E-02
   132.745  5.536048E-02
   133.173  5.557413E-02
   133.603  5.578830E-02
   134.033  5.600297E-02
   134.465  5.621815E-02
   134.899  5.643042E-02
   135.334  5.664250E-02
   135.770  5.685510E-02
   136.208  5.706818E-02
   136.647  5.728175E-02
   137.088  5.748698E-02
   137.530  5.769090E-02
   137.973  5.789508E-02
   138.418  5.809952E-02
   138.864  5.830422E-02
   139.312  5.850659E-02
   139.761  5.870873E-02
   140.212  5.891104E-02
   140.664  5.911351E-02
   141.117  5.931614E-02
   141.572  5.951361E-02
   142.028  5.971036E-02
   142.486  5.990708E-02
   142.946  6.010377E-02
   143.407  6.030041E-02
   143.869  6.047710E-02
   144.333  6.065065E-02
   144.798  6.082342E-02
   145.265  6.099533E-02
   145.733  6.116638E-02
   146.203  6.132210E-02
   146.675  6.147485E-02
   147.147  6.162601E-02
   147.622  6.177555E-02
   148.098  6.192341E-02
   148.575  6.209764E-02
   149.054  6.227349E-02
   149.535  6.244868E-02
   150.017  6.262319E-02
   150.501  6.279700E-02
   150.986  6.302571E-02
   151.473  6.325819E-02
   151.961  6.349088E-02
   152.451  6.372378E-02
   152.942  6.395686E-02
   153.436  6.419556E-02
   153.930  6.443479E-02
   154.427  6.467433E-02
   154.924  6.491414E-02
   155.424  6.515423E-02
   155.925  6.535927E-02
   156.428  6.556244E-02
   156.932  6.576477E-02
   157.438  6.596627E-02
   157.946  6.616688E-02
   158.455  6.633522E-02
   158.966  6.650100E-02
   159.478  6.666462E-02
   159.992  6.682601E-02
   160.508  6.698512E-02
   161.026  6.713298E-02
   161.545  6.727808E-02
   162.066  6.742036E-02
   162.588  6.755976E-02
   163.112  6.769559E-02
   163.638  6.779334E-02
   164.166  6.788643E-02
   164.695  6.797479E-02
   165.226  6.805829E-02
   165.759  6.813557E-02
   166.293  6.816798E-02
   166.829  6.819320E-02
   167.367  6.821114E-02
   167.907  6.822158E-02
   168.448  6.822461E-02
   168.991  6.822350E-02
   169.536  6.821471E-02
   170.083  6.819800E-02
   170.631  6.817330E-02
   171.181  6.814275E-02
   171.733  6.813971E-02
   172.287  6.812988E-02
   172.842  6.811320E-02
   173.399  6.808954E-02
   173.959  6.805882E-02
   174.519  6.802078E-02
   175.082  6.797548E-02
   175.646  6.792282E-02
   176.213  6.786267E-02
   176.781  6.779898E-02
   177.351  6.776541E-02
   177.923  6.772365E-02
   178.496  6.767355E-02
   179.072  6.761505E-02
   179.649  6.756838E-02
   180.228  6.768090E-02
   180.809  6.778686E-02
   181.392  6.788623E-02
   181.977  6.797881E-02
   182.564  6.806830E-02
   183.152  6.817725E-02
   183.743  6.827921E-02
   184.335  6.837406E-02
   184.930  6.846175E-02
   185.526  6.854215E-02
   186.124  6.861518E-02
   186.724  6.868075E-02
   187.326  6.873874E-02
   187.930  6.878907E-02
   188.536  6.884173E-02
   189.144  6.894310E-02
   189.754  6.903860E-02
   190.365  6.912823E-02
   190.979  6.921187E-02
   191.595  6.930530E-02
   192.213  6.947031E-02
   192.832  6.963173E-02
   193.454  6.978950E-02
   194.078  6.994357E-02
   194.703  7.009831E-02
   195.331  7.026889E-02
   195.961  7.043624E-02
   196.593  7.060028E-02
   197.227  7.076102E-02
   197.862  7.091922E-02
   198.500  7.107733E-02
   199.140  7.123210E-02
   199.782  7.138348E-02
   200.426  7.153146E-02
   201.073  7.168632E-02
   201.721  7.187543E-02
   202.371  7.206201E-02
   203.024  7.224599E-02
   203.678  7.242733E-02
   204.335  7.262618E-02
   204.994  7.288978E-02
   205.655  7.315248E-02
   206.318  7.341418E-02
   206.983  7.367489E-02
   207.650  7.393464E-02
   208.320  7.419337E-02
   208.991  7.445108E-02
   209.665  7.470770E-02
   210.341  7.496327E-02
   211.019  7.521769E-02
   211.700  7.547094E-02
   212.382  7.572306E-02
   213.067  7.597400E-02
   213.754  7.622376E-02
   214.443  7.647231E-02
   215.134  7.671968E-02
   215.828  7.696580E-02
   216.524  7.721066E-02
   217.222  7.745425E-02
   217.922  7.769649E-02
   218.625  7.793739E-02
   219.330  7.817696E-02
   220.037  7.841516E-02
   220.746  7.865199E-02
   221.458  7.888483E-02
   222.172  7.911053E-02
   222.888  7.933485E-02
   223.607  7.955778E-02
   224.328  7.977927E-02
   225.051  8.000220E-02
   225.777  8.023003E-02
   226.504  8.045694E-02
   227.235  8.068296E-02
   227.967  8.090807E-02
   228.702  8.113225E-02
   229.440  8.135546E-02
   230.179  8.157773E-02
   230.922  8.179906E-02
   231.666  8.201942E-02
   232.413  8.223882E-02
   233.162  8.245727E-02
   233.914  8.267475E-02
   234.668  8.289118E-02
   235.425  8.310664E-02
   236.184  8.332013E-02
   236.945  8.353103E-02
   237.709  8.374090E-02
   238.476  8.394974E-02
   239.244  8.415753E-02
   240.016  8.437382E-02
   240.790  8.460452E-02
   241.566  8.483465E-02
   242.345  8.506417E-02
   243.126  8.529311E-02
   243.910  8.552847E-02
   244.696  8.577385E-02
   245.485  8.601883E-02
   246.277  8.626340E-02
   247.071  8.650757E-02
   247.867  8.675132E-02
   248.666  8.699466E-02
   249.468  8.723753E-02
   250.272  8.748001E-02
   251.079  8.772202E-02
   251.889  8.796360E-02
   252.701  8.820472E-02
   253.516  8.844536E-02
   254.333  8.868553E-02
   255.153  8.892524E-02
   255.976  8.916467E-02
   256.801  8.940388E-02
   257.629  8.964258E-02
   258.459  8.988082E-02
   259.293  9.011856E-02
   260.129  9.036168E-02
   260.967  9.061120E-02
   261.809  9.086033E-02
   262.653  9.110912E-02
   263.500  9.135751E-02
   264.349  9.161076E-02
   265.201  9.186926E-02
   266.056  9.212738E-02
   266.914  9.238505E-02
   267.775  9.264228E-02
   268.638  9.292215E-02
   269.504  9.322504E-02
   270.373  9.352736E-02
   271.245  9.382908E-02
   272.119  9.413021E-02
   272.997  9.443096E-02
   273.877  9.473127E-02
   274.760  9.503096E-02
   275.646  9.533001E-02
   276.534  9.562839E-02
   277.426  9.592646E-02
   278.320  9.622410E-02
   279.218  9.652109E-02
   280.118  9.681738E-02
   281.021  9.711297E-02
   281.927  9.740899E-02
   282.836  9.770525E-02
   283.748  9.800083E-02
   284.663  9.829570E-02
   285.580  9.858982E-02
   286.501  9.890283E-02
   287.425  9.923106E-02
   288.352  9.955897E-02
   289.281  9.988657E-02
   290.214  0.100214
   291.150  0.100541
   292.088  0.100867
   293.030  0.101194
   293.975  0.101520
   294.922  0.101845
   295.873  0.102170
   296.827  0.102495
   297.784  0.102820
   298.744  0.103144
   299.707  0.103467
   300.674  0.103790
   301.643  0.104113
   302.616  0.104436
   303.591  0.104758
   304.570  0.105079
   305.552  0.105416
   306.537  0.105761
   307.525  0.106107
   308.517  0.106453
   309.512  0.106798
   310.509  0.107178
   311.511  0.107578
   312.515  0.107979
   313.522  0.108381
   314.533  0.108782
   315.547  0.109185
   316.565  0.109587
   317.585  0.109991
   318.609  0.110394
   319.636  0.110798
   320.667  0.111203
   321.701  0.111608
   322.738  0.112013
   323.779  0.112419
   324.822  0.112825
   325.870  0.113231
   326.920  0.113638
   327.974  0.114045
   329.032  0.114453
   330.093  0.114861
   331.157  0.115269
   332.224  0.115678
   333.296  0.116087
   334.370  0.116497
   335.448  0.116907
   336.530  0.117317
   337.615  0.117728
   338.703  0.118139
   339.795  0.118550
   340.891  0.118962
   341.990  0.119386
   343.092  0.119816
   344.198  0.120247
   345.308  0.120678
   346.421  0.121110
   347.538  0.121594
   348.659  0.122098
   349.783  0.122603
   350.911  0.123110
   352.042  0.123618
   353.177  0.124127
   354.316  0.124637
   355.458  0.125149
   356.604  0.125662
   357.754  0.126176
   358.907  0.126679
   360.064  0.127179
   361.225  0.127680
   362.390  0.128183
   363.558  0.128687
   364.730  0.129188
   365.906  0.129690
   367.086  0.130192
   368.269  0.130696
   369.457  0.131202
   370.648  0.131708
   371.843  0.132216
   373.042  0.132725
   374.244  0.133236
   375.451  0.133748
   376.662  0.134287
   377.876  0.134835
   379.094  0.135384
   380.316  0.135935
   381.543  0.136487
   382.773  0.137166
   384.007  0.137874
   385.245  0.138584
   386.487  0.139298
   387.733  0.140016
   388.983  0.140737
   390.237  0.141462
   391.495  0.142191
   392.758  0.142923
   394.024  0.143659
   395.294  0.144398
   396.569  0.145140
   397.847  0.145887
   399.130  0.146636
   400.417  0.147390
   401.708  0.148147
   403.003  0.148907
   404.302  0.149671
   405.606  0.150439
   406.913  0.151211
   408.225  0.152132
   409.541  0.153076
   410.862  0.154026
   412.186  0.154981
   413.515  0.155943
   414.848  0.157002
   416.186  0.158078
   417.528  0.159161
   418.874  0.160251
   420.224  0.161349
   421.579  0.162455
   422.938  0.163567
   424.302  0.164688
   425.670  0.165816
   427.042  0.166952
   428.419  0.168096
   429.800  0.169247
   431.186  0.170406
   432.576  0.171574
   433.971  0.172749
   435.370  0.173947
   436.774  0.175154
   438.182  0.176369
   439.595  0.177593
   441.012  0.178825
   442.434  0.180073
   443.860  0.181329
   445.291  0.182594
   446.727  0.183868
   448.167  0.185150
   449.612  0.186441
   451.062  0.187741
   452.516  0.189050
   453.975  0.190368
   455.438  0.191695
   456.907  0.193032
   458.380  0.194377
   459.858  0.195732
   461.340  0.197096
   462.828  0.198468
   464.320  0.199782
   465.817  0.201105
   467.319  0.202437
   468.825  0.203777
   470.337  0.205126
   471.853  0.206477
   473.375  0.207837
   474.901  0.209206
   476.432  0.210584
   477.968  0.211971
   479.509  0.213367
   481.055  0.214772
   482.606  0.216186
   484.162  0.217609
   485.723  0.219042
   487.289  0.220484
   488.860  0.221936
   490.436  0.223396
   492.017  0.224867
   493.603  0.226347
   495.195  0.227840
   496.791  0.229342
   498.393  0.230854
   500.000  0.232376
   500.694  0.233035
   501.388  0.233695
   502.084  0.234360
   502.780  0.235026
   503.478  0.235694
   504.176  0.236365
   504.876  0.237037
   505.576  0.237710
   506.277  0.238386
   506.980  0.239064
   507.683  0.239743
   508.387  0.240425
   509.093  0.241108
   509.799  0.241794
   510.506  0.242482
   511.214  0.243172
   511.923  0.243864
   512.634  0.244558
   513.345  0.245254
   514.057  0.245951
   514.770  0.246651
   515.484  0.247353
   516.199  0.248056
   516.915  0.248762
   517.632  0.249470
   518.351  0.250179
   519.070  0.250890
   519.790  0.251603
   520.511  0.252318
   521.233  0.253035
   521.956  0.253755
   522.680  0.254476
   523.405  0.255199
   524.131  0.255924
   524.858  0.256651
   525.586  0.257381
   526.316  0.258112
   527.046  0.258844
   527.777  0.259579
   528.509  0.260316
   529.242  0.261054
   529.976  0.261795
   530.712  0.262538
   531.448  0.263283
   532.185  0.264030
   532.923  0.264778
   533.663  0.265530
   534.403  0.266283
   535.144  0.267046
   535.887  0.267816
   536.630  0.268588
   537.375  0.269362
   538.120  0.270139
   538.867  0.270918
   539.614  0.271699
   540.363  0.272482
   541.112  0.273268
   541.863  0.274055
   542.615  0.274845
   543.367  0.151221
   544.121  0.151693
   544.876  0.152167
   545.632  0.152642
   546.389  0.153119
   547.147  0.153597
   547.906  0.154076
   548.666  0.154557
   549.427  0.155040
   550.189  0.155524
   550.953  0.156009
   551.717  0.156496
   552.482  0.156985
   553.249  0.157476
   554.016  0.157969
   554.785  0.158463
   555.554  0.158959
   556.325  0.159456
   557.097  0.159955
   557.870  0.160455
   558.644  0.160957
   559.419  0.161460
   560.195  0.161965
   560.972  0.162471
   561.750  0.162979
   562.529  0.163489
   563.310  0.164000
   564.091  0.164513
   564.874  0.165027
   565.657  0.165543
   566.442  0.166060
   567.228  0.166579
   568.015  0.167100
   568.803  0.167622
   569.592  0.168146
   570.382  0.168670
   571.173  0.169193
   571.966  0.169718
   572.759  0.170245
   573.554  0.170773
   574.349  0.171302
   575.146  0.171834
   575.944  0.172367
   576.743  0.172901
   577.543  0.173437
   578.344  0.173975
   579.146  0.174515
   579.950  0.175055
   580.754  0.175597
   581.560  0.176140
   582.367  0.176685
   583.175  0.177232
   583.984  0.177780
   584.794  0.178330
   585.605  0.178882
   586.417  0.179435
   587.231  0.179990
   588.046  0.180547
   588.861  0.181105
   589.678  0.181665
   590.496  0.182226
   591.315  0.182788
   592.136  0.183353
   592.957  0.183919
   593.780  0.184487
   594.604  0.185057
   595.428  0.185629
   596.254  0.186202
   597.082  0.186777
   597.910  0.187354
   598.739  0.187932
   599.570  0.188512
   600.402  0.189094
   601.235  0.189678
   602.069  0.190264
   602.904  0.190851
   603.740  0.191441
   604.578  0.192032
   605.417  0.192624
   606.256  0.193219
   607.097  0.193815
   607.940  0.194414
   608.783  0.195014
   609.628  0.195616
   610.473  0.196220
   611.320  0.196825
   612.168  0.197433
   613.017  0.198042
   613.868  0.198653
   614.719  0.199266
   615.572  0.199881
   616.426  0.200498
   617.281  0.201117
   618.138  0.201738
   618.995  0.202361
   619.854  0.202986
   620.714  0.203613
   621.575  0.204242
   622.437  0.204873
   623.301  0.205506
   624.165  0.206141
   625.031  0.206778
   625.898  0.207416
   626.767  0.208057
   627.636  0.208699
   628.507  0.209352
   629.379  0.210009
   630.252  0.210667
   631.126  0.211327
   632.002  0.211989
   632.878  0.212653
   633.756  0.213320
   634.635  0.213988
   635.516  0.214659
   636.397  0.215331
   637.280  0.216006
   638.164  0.216686
   639.050  0.217380
   639.936  0.218076
   640.824  0.218774
   641.713  0.219474
   642.603  0.220177
   643.495  0.220881
   644.387  0.221588
   645.281  0.222297
   646.176  0.223008
   647.073  0.223722
   647.970  0.224437
   648.869  0.225167
   649.770  0.225904
   650.671  0.226643
   651.574  0.227385
   652.477  0.228129
   653.383  0.228875
   654.289  0.229624
   655.197  0.230375
   656.106  0.231128
   657.016  0.231884
   657.927  0.232643
   658.840  0.233409
   659.754  0.234209
   660.669  0.235013
   661.586  0.235819
   662.504  0.236628
   663.423  0.237439
   664.343  0.238253
   665.265  0.239070
   666.187  0.239890
   667.112  0.240713
   668.037  0.241538
   668.964  0.242367
   669.892  0.243180
   670.821  0.243982
   671.752  0.244786
   672.684  0.245593
   673.617  0.246403
   674.551  0.247216
   675.487  0.248031
   676.424  0.248849
   677.362  0.249670
   678.302  0.250493
   679.243  0.251319
   680.185  0.252148
   681.129  0.252953
   682.074  0.253762
   683.020  0.254573
   683.968  0.255386
   684.917  0.256202
   685.867  0.257021
   686.818  0.257843
   687.771  0.258666
   688.725  0.259493
   689.680  0.260322
   690.637  0.261154
   691.595  0.261986
   692.555  0.262818
   693.516  0.263652
   694.478  0.264488
   695.441  0.265328
   696.406  0.266169
   697.372  0.267014
   698.339  0.267861
   699.308  0.268711
   700.278  0.269564
   701.250  0.270420
   702.222  0.271278
   703.197  0.272161
   704.172  0.273051
   705.149  0.273944
   706.127  0.274840
   707.107  0.275739
   708.088  0.276641
   709.070  0.277546
   710.054  0.278453
   711.039  0.279364
   712.025  0.280278
   713.013  0.281194
   714.002  0.282119
   714.992  0.283061
   715.984  0.284006
   716.978  0.284954
   717.972  0.285905
   718.968  0.286859
   719.966  0.287817
   720.964  0.288777
   721.965  0.289741
   722.966  0.290708
   723.969  0.291678
   724.973  0.292652
   725.979  0.293628
   726.986  0.294607
   727.995  0.295590
   729.005  0.296576
   730.016  0.297565
   731.029  0.298557
   732.043  0.299553
   733.058  0.300552
   734.075  0.301554
   735.094  0.302560
   736.113  0.303569
   737.135  0.304581
   738.157  0.305597
   739.181  0.306617
   740.207  0.307639
   741.234  0.308666
   742.262  0.309695
   743.292  0.310728
   744.323  0.311765
   745.355  0.312805
   746.389  0.313848
   747.425  0.314895
   748.461  0.315945
   749.500  0.316999
   750.540  0.318057
   751.581  0.319118
   752.623  0.320182
   753.667  0.321251
   754.713  0.322323
   755.760  0.323398
   756.808  0.324477
   757.858  0.325559
   758.910  0.326645
   759.962  0.327735
   761.017  0.328829
   762.072  0.329929
   763.130  0.331033
   764.188  0.332141
   765.248  0.333253
   766.310  0.334368
   767.373  0.335487
   768.438  0.336610
   769.504  0.337736
   770.571  0.338866
   771.640  0.340000
   772.711  0.341138
   773.782  0.342284
   774.856  0.343442
   775.931  0.344603
   777.007  0.345769
   778.085  0.346938
   779.165  0.348111
   780.245  0.349288
   781.328  0.350469
   782.412  0.351654
   783.497  0.352843
   784.584  0.354036
   785.673  0.355233
   786.762  0.356443
   787.854  0.357659
   788.947  0.358879
   790.041  0.360103
   791.137  0.361331
   792.235  0.362564
   793.334  0.363800
   794.434  0.365041
   795.536  0.366286
   796.640  0.367535
   797.745  0.368789
   798.852  0.370046
   799.960  0.371308
   801.070  0.372574
   802.181  0.373845
   803.294  0.375119
   804.408  0.376399
   805.524  0.377682
   806.642  0.378970
   807.761  0.380262
   808.881  0.381559
   810.003  0.382859
   811.127  0.384165
   812.252  0.385474
   813.379  0.386789
   814.508  0.388108
   815.638  0.389431
   816.769  0.390758
   817.902  0.392091
   819.037  0.393427
   820.173  0.394768
   821.311  0.396114
   822.450  0.397464
   823.591  0.398819
   824.734  0.400179
   825.878  0.401543
   827.023  0.402912
   828.171  0.404285
   829.320  0.405663
   830.470  0.407046
   831.622  0.408433
   832.776  0.409825
   833.931  0.411221
   835.088  0.412623
   836.246  0.414029
   837.406  0.415440
   838.568  0.416849
   839.732  0.418257
   840.896  0.419669
   842.063  0.421086
   843.231  0.422509
   844.401  0.423935
   845.572  0.425367
   846.745  0.426803
   847.920  0.428244
   849.096  0.429690
   850.274  0.431141
   851.454  0.432597
   852.635  0.434044
   853.818  0.435495
   855.002  0.436951
   856.188  0.438412
   857.376  0.439877
   858.565  0.441348
   859.756  0.442823
   860.949  0.444304
   862.144  0.445789
   863.340  0.447279
   864.537  0.448774
   865.737  0.450270
   866.938  0.451762
   868.140  0.453258
   869.345  0.454760
   870.551  0.456267
   871.758  0.457779
   872.968  0.459295
   874.179  0.460817
   875.391  0.462344
   876.606  0.463876
   877.822  0.465413
   879.040  0.466955
   880.259  0.468501
   881.480  0.470054
   882.703  0.471611
   883.928  0.473173
   885.154  0.474741
   886.382  0.476313
   887.611  0.477891
   888.843  0.479474
   890.076  0.481062
   891.310  0.482655
   892.547  0.484254
   893.785  0.485858
   895.025  0.487468
   896.267  0.489082
   897.510  0.490702
   898.755  0.492327
   900.002  0.493958
   901.250  0.495594
   902.501  0.497235
   903.753  0.498882
   905.006  0.500534
   906.262  0.502192
   907.519  0.503855
   908.778  0.505552
   910.039  0.507268
   911.301  0.508990
   912.565  0.510718
   913.831  0.512452
   915.099  0.514193
   916.369  0.515938
   917.640  0.517690
   918.913  0.519447
   920.188  0.521211
   921.464  0.522981
   922.742  0.524761
   924.023  0.526598
   925.304  0.528442
   926.588  0.530293
   927.873  0.532149
   929.161  0.534013
   930.450  0.535882
   931.740  0.537759
   933.033  0.539641
   934.327  0.541531
   935.623  0.543427
   936.921  0.545329
   938.221  0.547244
   939.523  0.549170
   940.826  0.551103
   942.131  0.553043
   943.438  0.554989
   944.747  0.556943
   946.058  0.558903
   947.370  0.560870
   948.684  0.562845
   950.000  0.564825
   951.318  0.566813
   952.638  0.568808
   953.960  0.570819
   955.283  0.572837
   956.608  0.574863
   957.935  0.576896
   959.264  0.578935
   960.595  0.580982
   961.927  0.583036
   963.262  0.585098
   964.598  0.587167
   965.936  0.589242
   967.276  0.591325
   968.618  0.593417
   969.962  0.595515
   971.307  0.597621
   972.655  0.599734
   974.004  0.601855
   975.355  0.603983
   976.709  0.606118
   978.063  0.608261
   979.420  0.610412
   980.779  0.612570
   982.140  0.614736
   983.502  0.616910
   984.866  0.619090
   986.233  0.621277
   987.601  0.623472
   988.971  0.625675
   990.343  0.627885
   991.717  0.630103
   993.093  0.632329
   994.470  0.634563
   995.850  0.636805
   997.231  0.639054
   998.615  0.641312
   1000.00  0.643577
   1001.39  0.645848
   1002.78  0.648128
   1004.17  0.650415
   1005.56  0.652711
   1006.96  0.655014
   1008.35  0.657326
   1009.75  0.659646
   1011.15  0.661974
   1012.55  0.664310
   1013.96  0.666655
   1015.37  0.669007
   1016.77  0.671356
   1018.19  0.673707
   1019.60  0.676067
   1021.01  0.678435
   1022.43  0.680811
   1023.85  0.683195
   1025.27  0.685588
   1026.69  0.687989
   1028.11  0.690398
   1029.54  0.692815
   1030.97  0.695242
   1032.40  0.697679
   1033.83  0.700154
   1035.26  0.702638
   1036.70  0.705130
   1038.14  0.707631
   1039.58  0.710141
   1041.02  0.712660
   1042.47  0.715188
   1043.91  0.717724
   1045.36  0.720270
   1046.81  0.722825
   1048.26  0.725389
   1049.72  0.727946
   1051.17  0.730496
   1052.63  0.733055
   1054.09  0.735623
   1055.55  0.738200
   1057.02  0.740787
   1058.48  0.743382
   1059.95  0.745986
   1061.42  0.748599
   1062.90  0.751221
   1064.37  0.753853
   1065.85  0.756493
   1067.33  0.759144
   1068.81  0.761804
   1070.29  0.764473
   1071.77  0.767152
   1073.26  0.769840
   1074.75  0.772537
   1076.24  0.775244
   1077.73  0.777960
   1079.23  0.780686
   1080.73  0.783421
   1082.22  0.786165
   1083.73  0.788919
   1085.23  0.791683
   1086.73  0.794457
   1088.24  0.797240
   1089.75  0.800033
   1091.26  0.802835
   1092.78  0.805647
   1094.29  0.808469
   1095.81  0.811302
   1097.33  0.814143
   1098.85  0.816995
   1100.38  0.819857
   1101.91  0.822729
   1103.43  0.825611
   1104.96  0.828503
   1106.50  0.831405
   1108.03  0.834318
   1109.57  0.837240
   1111.11  0.840173
   1112.65  0.843117
   1114.19  0.846070
   1115.74  0.849033
   1117.29  0.852007
   1118.84  0.854991
   1120.39  0.857985
   1121.94  0.860989
   1123.50  0.864004
   1125.06  0.867030
   1126.62  0.870066
   1128.18  0.873112
   1129.75  0.876170
   1131.31  0.879237
   1132.88  0.882316
   1134.46  0.885405
   1136.03  0.888505
   1137.61  0.891615
   1139.18  0.894736
   1140.76  0.897868
   1142.35  0.901012
   1143.93  0.904166
   1145.52  0.907330
   1147.11  0.910507
   1148.70  0.913694
   1150.29  0.916892
   1151.89  0.920101
   1153.49  0.923322
   1155.09  0.926553
   1156.69  0.929797
   1158.29  0.933053
   1159.90  0.936320
   1161.51  0.939598
   1163.12  0.942887
   1164.73  0.946189
   1166.35  0.949501
   1167.97  0.952825
   1169.59  0.956161
   1171.21  0.959509
   1172.83  0.962868
   1174.46  0.966238
   1176.09  0.969621
   1177.72  0.973015
   1179.36  0.976421
   1180.99  0.979839
   1182.63  0.983269
   1184.27  0.986712
   1185.91  0.990165
   1187.56  0.993631
   1189.21  0.997110
   1190.86  1.00060
   1192.51  1.00410
   1194.16  1.00762
   1195.82  1.01114
   1197.48  1.01468
   1199.14  1.01823
   1200.80  1.02180
   1202.47  1.02537
   1204.14  1.02896
   1205.81  1.03256
   1207.48  1.03618
   1209.16  1.03980
   1210.83  1.04344
   1212.51  1.04709
   1214.19  1.05076
   1215.88  1.05443
   1217.57  1.05812
   1219.26  1.06183
   1220.95  1.06554
   1222.64  1.06927
   1224.34  1.07301
   1226.03  1.07677
   1227.74  1.08054
   1229.44  1.08432
   1231.14  1.08811
   1232.85  1.09192
   1234.56  1.09575
   1236.28  1.09959
   1237.99  1.10344
   1239.71  1.10731
   1241.43  1.11118
   1243.15  1.11508
   1244.87  1.11898
   1246.60  1.12290
   1248.33  1.12684
   1250.06  1.13078
   1251.80  1.13475
   1253.53  1.13873
   1255.27  1.14272
   1257.01  1.14673
   1258.76  1.15076
   1260.50  1.15479
   1262.25  1.15884
   1264.00  1.16291
   1265.76  1.16699
   1267.51  1.17108
   1269.27  1.17519
   1271.03  1.17931
   1272.79  1.18346
   1274.56  1.18762
   1276.33  1.19179
   1278.10  1.19599
   1279.87  1.20019
   1281.65  1.20441
   1283.43  1.20865
   1285.21  1.21290
   1286.99  1.21716
   1288.77  1.22144
   1290.56  1.22574
   1292.35  1.23005
   1294.15  1.23437
   1295.94  1.23871
   1297.74  1.24307
   1299.54  1.24744
   1301.34  1.25182
   1303.15  1.25622
   1304.95  1.26064
   1306.77  1.26507
   1308.58  1.26952
   1310.39  1.27398
   1312.21  1.27846
   1314.03  1.28296
   1315.85  1.28747
   1317.68  1.29199
   1319.51  1.29653
   1321.34  1.30109
   1323.17  1.30566
   1325.01  1.31025
   1326.85  1.31486
   1328.69  1.31948
   1330.53  1.32411
   1332.37  1.32877
   1334.22  1.33344
   1336.07  1.33812
   1337.93  1.34283
   1339.78  1.34755
   1341.64  1.35228
   1343.50  1.35704
   1345.37  1.36181
   1347.23  1.36659
   1349.10  1.37139
   1350.97  1.37621
   1352.85  1.38105
   1354.72  1.38590
   1356.60  1.39077
   1358.49  1.39566
   1360.37  1.40056
   1362.26  1.40548
   1364.15  1.41042
   1366.04  1.41538
   1367.94  1.42035
   1369.83  1.42534
   1371.73  1.43034
   1373.64  1.43537
   1375.54  1.44041
   1377.45  1.44547
   1379.36  1.45055
   1381.27  1.45564
   1383.19  1.46075
   1385.11  1.46589
   1387.03  1.47104
   1388.96  1.47620
   1390.88  1.48139
   1392.81  1.48659
   1394.74  1.49181
   1396.68  1.49705
   1398.62  1.50231
   1400.56  1.50758
   1402.50  1.51288
   1404.44  1.51820
   1406.39  1.52353
   1408.34  1.52888
   1410.30  1.53425
   1412.25  1.53964
   1414.21  1.54505
   1416.18  1.55047
   1418.14  1.55592
   1420.11  1.56138
   1422.08  1.56687
   1424.05  1.57237
   1426.03  1.57789
   1428.00  1.58343
   1429.98  1.58899
   1431.97  1.59457
   1433.96  1.60017
   1435.94  1.60579
   1437.94  1.61143
   1439.93  1.61709
   1441.93  1.62277
   1443.93  1.62846
   1445.93  1.63418
   1447.94  1.63993
   1449.95  1.64569
   1451.96  1.65148
   1453.97  1.65729
   1455.99  1.66311
   1458.01  1.66896
   1460.03  1.67483
   1462.06  1.68072
   1464.09  1.68662
   1466.12  1.69255
   1468.15  1.69850
   1470.19  1.70448
   1472.23  1.71049
   1474.27  1.71652
   1476.31  1.72257
   1478.36  1.72865
   1480.41  1.73474
   1482.47  1.74086
   1484.52  1.74699
   1486.58  1.75315
   1488.65  1.75933
   1490.71  1.76553
   1492.78  1.77176
   1494.85  1.77801
   1496.92  1.78428
   1499.00  1.79058
   1501.08  1.79690
   1503.16  1.80324
   1505.25  1.80960
   1507.33  1.81598
   1509.43  1.82239
   1511.52  1.82882
   1513.62  1.83527
   1515.72  1.84174
   1517.82  1.84822
   1519.92  1.85466
   1522.03  1.86113
   1524.14  1.86762
   1526.26  1.87413
   1528.38  1.88067
   1530.50  1.88723
   1532.62  1.89381
   1534.75  1.90041
   1536.88  1.90704
   1539.01  1.91368
   1541.14  1.92035
   1543.28  1.92705
   1545.42  1.93376
   1547.56  1.94050
   1549.71  1.94726
   1551.86  1.95404
   1554.01  1.96085
   1556.17  1.96768
   1558.33  1.97454
   1560.49  1.11156
   1562.66  1.11529
   1564.82  1.11904
   1566.99  1.12281
   1569.17  1.12658
   1571.35  1.13037
   1573.52  1.13418
   1575.71  1.13799
   1577.89  1.14182
   1580.08  1.14566
   1582.27  1.14951
   1584.47  1.15338
   1586.67  1.15726
   1588.87  1.16115
   1591.07  1.16505
   1593.28  1.16897
   1595.49  1.17290
   1597.70  1.17685
   1599.92  1.18080
   1602.14  1.18478
   1604.36  1.18876
   1606.59  1.19276
   1608.82  1.19677
   1611.05  1.20079
   1613.28  1.20483
   1615.52  1.20888
   1617.76  1.21294
   1620.01  1.21702
   1622.25  1.22111
   1624.50  1.22522
   1626.76  1.22933
   1629.02  1.23347
   1631.28  1.23761
   1633.54  1.24177
   1635.80  1.24594
   1638.07  1.25013
   1640.35  1.25433
   1642.62  1.25855
   1644.90  1.26278
   1647.18  1.26702
   1649.47  1.27128
   1651.76  1.27556
   1654.05  1.27984
   1656.34  1.28414
   1658.64  1.28846
   1660.94  1.29279
   1663.24  1.29713
   1665.55  1.30149
   1667.86  1.30587
   1670.18  1.31026
   1672.49  1.31466
   1674.81  1.31907
   1677.14  1.32351
   1679.46  1.32796
   1681.79  1.33242
   1684.13  1.33689
   1686.46  1.34139
   1688.80  1.34589
   1691.14  1.35041
   1693.49  1.35495
   1695.84  1.35950
   1698.19  1.36407
   1700.55  1.36865
   1702.91  1.37325
   1705.27  1.37787
   1707.64  1.38249
   1710.00  1.38714
   1712.38  1.39180
   1714.75  1.39647
   1717.13  1.40116
   1719.51  1.40587
   1721.90  1.41059
   1724.29  1.41533
   1726.68  1.42014
   1729.07  1.42499
   1731.47  1.42986
   1733.88  1.43474
   1736.28  1.43965
   1738.69  1.44456
   1741.10  1.44950
   1743.52  1.45445
   1745.94  1.45942
   1748.36  1.46440
   1750.78  1.46940
   1753.21  1.47442
   1755.64  1.47949
   1758.08  1.48457
   1760.52  1.48967
   1762.96  1.49479
   1765.41  1.49992
   1767.86  1.50508
   1770.31  1.51025
   1772.76  1.51543
   1775.22  1.52064
   1777.69  1.52586
   1780.15  1.53110
   1782.62  1.53637
   1785.09  1.54167
   1787.57  1.54699
   1790.05  1.55233
   1792.53  1.55768
   1795.02  1.56305
   1797.51  1.56844
   1800.00  1.57385
   1802.50  1.57928
   1805.00  1.58473
   1807.51  1.59019
   1810.01  1.59568
   1812.52  1.60118
   1815.04  1.60670
   1817.56  1.61224
   1820.08  1.61780
   1822.60  1.62338
   1825.13  1.62898
   1827.66  1.63460
   1830.20  1.64024
   1832.74  1.64589
   1835.28  1.65157
   1837.83  1.65726
   1840.38  1.66303
   1842.93  1.66887
   1845.48  1.67474
   1848.05  1.68063
   1850.61  1.68654
   1853.18  1.69246
   1855.75  1.69841
   1858.32  1.70439
   1860.90  1.71038
   1863.48  1.71639
   1866.07  1.72242
   1868.65  1.72848
   1871.25  1.73462
   1873.84  1.74079
   1876.44  1.74699
   1879.05  1.75321
   1881.65  1.75945
   1884.26  1.76571
   1886.88  1.77200
   1889.49  1.77831
   1892.12  1.78464
   1894.74  1.79099
   1897.37  1.79736
   1900.00  1.80376
   1902.64  1.81018
   1905.28  1.81662
   1907.92  1.82309
   1910.57  1.82958
   1913.22  1.83609
   1915.87  1.84262
   1918.53  1.84918
   1921.19  1.85576
   1923.85  1.86236
   1926.52  1.86899
   1929.20  1.87564
   1931.87  1.88232
   1934.55  1.88902
   1937.24  1.89574
   1939.92  1.90248
   1942.61  1.90925
   1945.31  1.91605
   1948.01  1.92287
   1950.71  1.92971
   1953.42  1.93657
   1956.13  1.94347
   1958.84  1.95038
   1961.56  1.95732
   1964.28  1.96428
   1967.00  1.97127
   1969.73  1.97829
   1972.47  1.98533
   1975.20  1.99239
   1977.94  1.99948
   1980.69  2.00660
   1983.43  2.01374
   1986.19  2.02090
   1988.94  2.02809
   1991.70  2.03531
   1994.46  2.04251
   1997.23  2.04971
   2000.00  2.05693
   2002.77  2.06418
   2005.55  2.07145
   2008.34  2.07875
   2011.12  2.08608
   2013.91  2.09343
   2016.70  2.10081
   2019.50  2.10821
   2022.30  2.11564
   2025.11  2.12309
   2027.92  2.13073
   2030.73  2.13840
   2033.55  2.14609
   2036.37  2.15382
   2039.20  2.16157
   2042.02  2.16935
   2044.86  2.17716
   2047.69  2.18500
   2050.53  2.19286
   2053.38  2.20076
   2056.23  2.20868
   2059.08  2.21664
   2061.94  2.22464
   2064.80  2.23268
   2067.66  2.24074
   2070.53  2.24883
   2073.40  2.25695
   2076.28  2.26510
   2079.16  2.27328
   2082.04  1.21567
   2084.93  1.22071
   2087.82  1.22578
   2090.72  1.23087
   2093.62  1.23598
   2096.52  1.24112
   2099.43  1.24628
   2102.35  1.25145
   2105.26  1.25666
   2108.18  1.26188
   2111.11  1.26712
   2114.04  1.27239
   2116.97  1.27767
   2119.91  1.28298
   2122.85  1.28831
   2125.79  1.29367
   2128.74  1.29904
   2131.69  1.30444
   2134.65  1.30986
   2137.61  1.31531
   2140.58  1.32077
   2143.55  1.32626
   2146.52  1.33177
   2149.50  1.33731
   2152.48  1.34286
   2155.47  1.26386
   2158.46  1.10215
   2161.45  1.10539
   2164.45  1.10864
   2167.45  1.11190
   2170.46  1.11518
   2173.47  1.11846
   2176.48  1.12175
   2179.50  1.12505
   2182.53  1.12836
   2185.56  1.13168
   2188.59  1.13501
   2191.62  1.13835
   2194.66  1.14170
   2197.71  1.14506
   2200.76  1.14843
   2203.81  1.15180
   2206.87  1.15519
   2209.93  1.15859
   2212.99  1.16200
   2216.06  1.16542
   2219.14  1.16884
   2222.22  1.17228
   2225.30  1.17573
   2228.39  1.17919
   2231.48  1.18265
   2234.57  1.18614
   2237.67  1.18963
   2240.78  1.19313
   2243.89  1.19664
   2247.00  1.20016
   2250.12  1.20369
   2253.24  1.20723
   2256.36  1.21078
   2259.49  1.21435
   2262.63  1.21792
   2265.77  1.22150
   2268.91  1.22556
   2272.06  1.22967
   2275.21  1.23378
   2278.37  1.23791
   2281.53  1.24205
   2284.69  1.24621
   2287.86  1.25038
   2291.04  1.25457
   2294.21  1.25877
   2297.40  1.26298
   2300.58  1.26720
   2303.78  1.27157
   2306.97  1.27615
   2310.17  1.28075
   2313.38  1.28536
   2316.59  1.29000
   2319.80  1.29464
   2323.02  1.29931
   2326.24  1.30399
   2329.47  1.30869
   2332.70  1.31341
   2335.93  1.31814
   2339.18  1.32289
   2342.42  1.32766
   2345.67  1.33245
   2348.92  1.33725
   2352.18  1.34208
   2355.45  1.34692
   2358.71  1.35178
   2361.99  1.35665
   2365.26  1.36154
   2368.54  1.36646
   2371.83  1.37138
   2375.12  1.26484
   2378.41  1.26893
   2381.71  1.27304
   2385.02  1.27717
   2388.33  1.28131
   2391.64  1.28546
   2394.96  1.28963
   2398.28  1.29380
   2401.61  1.29800
   2404.94  1.30220
   2408.27  1.30642
   2411.62  1.31065
   2414.96  1.31490
   2418.31  1.31916
   2421.67  1.32344
   2425.03  1.32773
   2428.39  1.33203
   2431.76  1.33635
   2435.13  1.34068
   2438.51  1.34503
   2441.89  1.34939
   2445.28  1.35376
   2448.67  1.35815
   2452.07  1.36255
   2455.47  1.36697
   2458.88  1.37140
   2462.29  1.37585
   2465.70  1.38031
   2469.13  1.38479
   2472.55  1.38928
   2475.98  1.39379
   2479.42  1.39831
   2482.85  1.40284
   2486.30  1.40739
   2489.75  1.41196
   2493.20  1.41654
   2496.66  1.42113
   2500.12  1.42574
   2503.59  1.43037
   2507.07  1.43501
   2510.54  1.43966
   2514.03  1.44433
   2517.51  1.44902
   2521.01  1.45371
   2524.50  1.45843
   2528.01  1.46316
   2531.51  1.46791
   2535.03  1.47267
   2538.54  1.47745
   2542.06  1.48224
   2545.59  1.48705
   2549.12  1.49188
   2552.66  1.49672
   2556.20  1.50158
   2559.74  1.50645
   2563.30  1.51134
   2566.85  1.51625
   2570.41  1.52117
   2573.98  1.52610
   2577.55  1.53106
   2581.13  1.53603
   2584.71  1.54101
   2588.29  1.54601
   2591.88  1.55103
   2595.48  1.55607
   2599.08  1.56112
   2602.68  1.56618
   2606.29  1.57127
   2609.91  1.57637
   2613.53  1.58148
   2617.16  1.58661
   2620.79  1.59177
   2624.42  1.59693
   2628.06  1.60212
   2631.71  1.60732
   2635.36  1.61254
   2639.02  1.61778
   2642.68  1.62303
   2646.34  1.62830
   2650.01  1.63359
   2653.69  1.63889
   2657.37  1.64421
   2661.06  1.64955
   2664.75  1.65491
   2668.45  1.66029
   2672.15  1.66568
   2675.86  1.67109
   2679.57  1.67652
   2683.28  1.68196
   2687.01  1.68742
   2690.73  1.69290
   2694.47  1.69840
   2698.21  1.70392
   2701.95  1.70945
   2705.70  1.71500
   2709.45  1.72057
   2713.21  1.72617
   2716.97  1.73177
   2720.74  1.73740
   2724.52  1.74305
   2728.30  1.74871
   2732.08  1.75439
   2735.87  1.76009
   2739.67  1.76581
   2743.47  1.77154
   2747.27  1.77730
   2751.08  1.78307
   2754.90  1.78887
   2758.72  1.79468
   2762.55  1.80051
   2766.38  1.80636
   2770.22  1.81223
   2774.06  1.81812
   2777.91  1.82403
   2781.76  1.82995
   2785.62  1.83590
   2789.49  1.84186
   2793.36  1.84804
   2797.23  1.85443
   2801.11  1.86085
   2805.00  1.86728
   2808.89  1.87374
   2812.79  1.88023
   2816.69  1.88673
   2820.60  1.89326
   2824.51  1.89981
   2828.43  1.90638
   2832.35  1.91297
   2836.28  1.91959
   2840.21  1.92664
   2844.15  1.93375
   2848.10  1.94089
   2852.05  1.94806
   2856.01  1.95525
   2859.97  1.96247
   2863.94  1.96971
   2867.91  1.97698
   2871.89  1.98428
   2875.87  1.99161
   2879.86  1.99896
   2883.86  2.00634
   2887.86  2.01375
   2891.86  2.02119
   2895.88  2.02866
   2899.89  2.03615
   2903.92  2.04367
   2907.95  2.05122
   2911.98  2.05880
   2916.02  2.06640
   2920.06  2.07403
   2924.11  2.08169
   2928.17  2.08938
   2932.23  2.09710
   2936.30  2.10485
   2940.37  2.11263
   2944.45  2.12044
   2948.54  2.12827
   2952.63  2.13614
   2956.72  2.14403
   2960.83  2.15195
   2964.93  2.15990
   2969.05  2.16789
   2973.17  2.17590
   2977.29  2.18394
   2981.42  2.19201
   2985.56  2.20011
   2989.70  2.20824
   2993.85  2.21641
   2998.00  2.22460
   3002.16  2.23282
   3006.32  2.24108
   3010.49  2.24936
   3014.67  2.25767
   3018.85  2.26602
   3023.04  2.27439
   3027.23  2.28281
   3031.43  2.29125
   3035.64  2.29973
   3039.85  2.30823
   3044.07  2.31677
   3048.29  2.32534
   3052.52  2.33394
   3056.75  2.34257
   3060.99  2.35124
   3065.24  2.35994
   3069.49  2.36866
   3073.75  2.37743
   3078.01  2.38622
   3082.28  2.39505
   3086.56  2.40392
   3090.84  2.41281
   3095.13  2.42174
   3099.42  2.43070
   3103.72  2.43970
   3108.03  2.44873
   3112.34  2.45779
   3116.66  2.46688
   3120.98  2.47601
   3125.31  2.48517
   3129.65  2.49438
   3133.99  2.50361
   3138.34  2.51288
   3142.69  2.52218
   3147.05  2.53152
   3151.42  2.54089
   3155.79  2.55029
   3160.17  2.55973
   3164.55  2.56921
   3168.94  2.57872
   3173.34  2.58827
   3177.74  2.59785
   3182.15  2.60748
   3186.56  2.61713
   3190.98  2.62683
   3195.41  2.63656
   3199.84  2.64632
   3204.28  2.65612
   3208.72  2.66596
   3213.18  2.67583
   3217.63  2.68574
   3222.10  2.69569
   3226.57  2.70568
   3231.04  2.71570
   3235.53  2.72576
   3240.01  2.73586
   3244.51  2.74600
   3249.01  2.75617
   3253.52  2.76639
   3258.03  2.77663
   3262.55  2.78692
   3267.08  2.79725
   3271.61  2.80761
   3276.15  2.81801
   3280.69  2.82846
   3285.24  2.83895
   3289.80  2.84947
   3294.36  2.86004
   3298.93  2.87064
   3303.51  2.88128
   3308.09  2.89196
   3312.68  2.90268
   3317.28  2.91345
   3321.88  2.92424
   3326.49  2.93509
   3331.10  2.94595
   3335.72  2.95674
   3340.35  2.96758
   3344.99  2.97846
   3349.63  2.98937
   3354.27  3.00033
   3358.93  3.01132
   3363.59  3.02236
   3368.25  3.03344
   3372.92  3.04455
   3377.60  3.05571
   3382.29  3.06691
   3386.98  3.07812
   3391.68  3.08936
   3396.39  3.10064
   3401.10  3.11196
   3405.81  3.12332
   3410.54  3.13472
   3415.27  3.14616
   3420.01  3.15765
   3424.75  3.16917
   3429.50  3.18074
   3434.26  3.19235
   3439.03  3.20401
   3443.80  3.21571
   3448.57  3.22745
   3453.36  3.23924
   3458.15  3.25107
   3462.95  3.26294
   3467.75  3.27486
   3472.56  3.28682
   3477.38  3.29882
   3482.20  3.31087
   3487.03  3.32296
   3491.87  3.33509
   3496.71  3.34727
   3501.57  3.35950
   3506.42  3.37177
   3511.29  3.38410
   3516.16  3.39646
   3521.04  3.40887
   3525.92  3.42132
   3530.81  3.43382
   3535.71  3.44636
   3540.61  3.45896
   3545.53  3.47159
   3550.45  3.48427
   3555.37  3.49700
   3560.30  3.50979
   3565.24  3.52262
   3570.19  3.53549
   3575.14  3.54841
   3580.10  3.56138
   3585.07  3.57439
   3590.04  3.58746
   3595.02  3.60057
   3600.01  3.61373
   3605.00  3.62693
   3610.00  3.64019
   3615.01  3.65350
   3620.03  3.66686
   3625.05  3.68027
   3630.08  3.69373
   3635.11  3.70723
   3640.16  3.72079
   3645.21  3.73439
   3650.26  3.74805
   3655.33  3.76175
   3660.40  3.77551
   3665.47  3.78931
   3670.56  3.80317
   3675.65  3.81708
   3680.75  3.83104
   3685.86  3.84505
   3690.97  3.85912
   3696.09  3.87323
   3701.22  3.88739
   3706.35  3.90161
   3711.49  3.91588
   3716.64  3.93020
   3721.80  3.94457
   3726.96  3.95900
   3732.13  3.97349
   3737.31  3.98802
   3742.49  4.00262
   3747.69  4.01726
   3752.88  4.03195
   3758.09  4.04671
   3763.30  4.06151
   3768.53  4.07637
   3773.75  4.09129
   3778.99  4.10625
   3784.23  4.12127
   3789.48  4.13648
   3794.74  4.15182
   3800.00  4.16722
   3805.27  4.18268
   3810.55  4.19819
   3815.84  4.21376
   3821.13  4.22939
   3826.43  4.24508
   3831.74  4.26083
   3837.06  4.27663
   3842.38  4.29249
   3847.71  4.30842
   3853.05  4.32459
   3858.39  4.34083
   3863.75  4.35713
   3869.11  4.37349
   3874.47  4.38991
   3879.85  4.40639
   3885.23  4.42294
   3890.62  4.43955
   3896.02  4.45621
   3901.42  4.47295
   3906.83  4.48975
   3912.25  4.50660
   3917.68  4.52353
   3923.12  4.54052
   3928.56  4.55757
   3934.01  4.57469
   3939.47  4.59187
   3944.93  4.60912
   3950.40  4.62643
   3955.88  4.64380
   3961.37  4.66124
   3966.87  4.67875
   3972.37  4.69632
   3977.88  4.71397
   3983.40  4.73168
   3988.93  4.74947
   3994.46  4.76732
   4000.00  4.78523
   4005.55  4.80322
   4011.11  4.82127
   4016.67  4.83939
   4022.24  4.85757
   4027.82  4.87583
   4033.41  4.89415
   4039.01  4.91255
   4044.61  4.93101
   4050.22  4.94954
   4055.84  4.96814
   4061.46  4.98681
   4067.10  5.00555
   4072.74  5.02437
   4078.39  5.04324
   4084.05  5.06220
   4089.71  5.08123
   4095.39  5.10032
   4101.07  5.11949
   4106.76  5.13874
   4112.46  5.15805
   4118.16  5.17745
   4123.87  5.19691
   4129.59  5.21645
   4135.32  5.23606
   4141.06  5.25574
   4146.80  5.27551
   4152.56  5.29534
   4158.32  5.31525
   4164.09  5.33523
   4169.86  5.35516
   4175.65  5.37433
   4181.44  5.39359
   4187.24  5.41290
   4193.05  5.43230
   4198.87  5.45176
   4204.69  5.47128
   4210.52  5.49088
   4216.37  5.51055
   4222.21  5.53028
   4228.07  5.55009
   4233.94  5.56997
   4239.81  5.58992
   4245.69  5.60995
   4251.58  5.63004
   4257.48  5.65022
   4263.39  5.67046
   4269.30  5.69077
   4275.22  5.71115
   4281.15  5.73162
   4287.09  5.75214
   4293.04  5.77275
   4299.00  5.79342
   4304.96  5.81418
   4310.93  5.83501
   4316.91  5.85591
   4322.90  5.87689
   4328.90  5.89795
   4334.90  5.91907
   4340.92  5.94028
   4346.94  5.96157
   4352.97  5.98292
   4359.01  6.00435
   4365.06  6.02586
   4371.11  6.04744
   4377.17  6.06911
   4383.25  6.09086
   4389.33  6.11269
   4395.42  6.13459
   4401.51  6.15657
   4407.62  6.17863
   4413.73  6.20077
   4419.86  6.22299
   4425.99  6.24529
   4432.13  6.26766
   4438.28  6.29012
   4444.44  6.31266
   4450.60  6.33528
   4456.77  6.35799
   4462.96  6.38078
   4469.15  6.40364
   4475.35  6.42659
   4481.56  6.44961
   4487.77  6.47273
   4494.00  6.49593
   4500.23  6.51920
   4506.48  6.54256
   4512.73  6.56601
   4518.99  6.58953
   4525.26  6.61315
   4531.54  6.63686
   4537.82  6.66064
   4544.12  6.68452
   4550.42  6.70847
   4556.73  6.73251
   4563.05  6.75664
   4569.38  6.78085
   4575.72  6.80516
   4582.07  6.82955
   4588.43  6.85402
   4594.79  6.87858
   4601.17  6.90324
   4607.55  6.92797
   4613.94  6.95281
   4620.34  6.97772
   4626.75  7.00273
   4633.17  7.02783
   4639.60  7.05300
   4646.04  7.07828
   4652.48  7.10365
   4658.93  7.12910
   4665.40  7.15465
   4671.87  7.18030
   4678.35  7.20603
   4684.84  7.23186
   4691.34  7.25778
   4697.85  7.28379
   4704.37  7.30990
   4710.89  7.33610
   4717.43  7.36239
   4723.97  7.38878
   4730.52  7.41526
   4737.09  7.44184
   4743.66  7.46851
   4750.24  7.49528
   4756.83  7.52215
   4763.43  7.54911
   4770.04  7.57618
   4776.65  7.60334
   4783.28  7.63059
   4789.92  7.65794
   4796.56  7.68540
   4803.21  7.71294
   4809.88  7.74059
   4816.55  7.76832
   4823.23  7.79618
   4829.92  7.82413
   4836.62  7.85217
   4843.33  7.88032
   4850.05  7.90857
   4856.78  7.93691
   4863.52  7.96536
   4870.26  7.99392
   4877.02  8.02256
   4883.79  8.05132
   4890.56  8.08017
   4897.35  8.10952
   4904.14  8.13954
   4910.94  8.16966
   4917.76  8.19991
   4924.58  8.23026
   4931.41  8.26072
   4938.25  8.29130
   4945.10  8.32200
   4951.96  8.35279
   4958.83  8.38371
   4965.71  8.41473
   4972.60  8.44588
   4979.50  8.47764
   4986.40  8.50961
   4993.32  8.54171
   5000.25  8.57393
   5007.19  8.60626
   5014.13  8.63872
   5021.09  8.67131
   5028.05  8.70401
   5035.03  8.73684
   5042.01  8.76978
   5049.01  8.80286
   5056.01  8.83607
   5063.03  8.86939
   5070.05  8.90285
   5077.08  8.93644
   5084.13  8.97013
   5091.18  9.00398
   5098.24  9.03794
   5105.31  9.07202
   5112.40  9.10625
   5119.49  9.14059
   5126.59  9.17507
   5133.70  9.20968
   5140.83  9.24442
   5147.96  9.27930
   5155.10  9.31432
   5162.25  9.34946
   5169.41  9.38474
   5176.58  9.42015
   5183.76  9.45569
   5190.96  9.49137
   5198.16  9.52717
   5205.37  9.56312
   5212.59  9.59921
   5219.82  9.63541
   5227.06  9.67178
   5234.31  9.70828
   5241.57  9.74490
   5248.85  9.78168
   5256.13  9.81859
   5263.42  9.85563
   5270.72  9.89282
   5278.03  9.93013
   5285.35  9.96761
   5292.69  10.0052
   5300.03  10.0430
   5307.38  10.0809
   5314.74  10.1189
   5322.12  10.1571
   5329.50  10.1954
   5336.89  10.2339
   5344.30  10.2725
   5351.71  10.3113
   5359.13  10.3502
   5366.57  10.3892
   5374.01  10.4284
   5381.47  10.4678
   5388.93  10.5073
   5396.41  10.5469
   5403.90  10.5867
   5411.39  10.6267
   5418.90  10.6668
   5426.42  10.7071
   5433.95  10.7475
   5441.48  10.7880
   5449.03  10.8288
   5456.59  10.8696
   5464.16  10.9106
   5471.74  10.9518
   5479.33  10.9932
   5486.93  11.0347
   5494.54  11.0763
   5502.17  11.1181
   5509.80  11.1601
   5517.44  11.2022
   5525.10  11.2445
   5532.76  11.2870
   5540.44  11.3296
   5548.12  11.3723
   5555.82  11.4153
   5563.53  11.4584
   5571.25  11.5016
   5578.97  11.5450
   5586.71  11.5886
   5594.46  11.6324
   5602.23  11.6763
   5610.00  11.7203
   5617.78  11.7646
   5625.57  11.8090
   5633.38  11.8536
   5641.19  11.8983
   5649.02  11.9432
   5656.85  11.9883
   5664.70  12.0336
   5672.56  12.0790
   5680.43  12.1246
   5688.31  12.1704
   5696.20  12.2163
   5704.10  12.2624
   5712.02  12.3087
   5719.94  12.3552
   5727.88  12.4018
   5735.82  12.4486
   5743.78  12.4956
   5751.75  12.5428
   5759.73  12.5902
   5767.72  12.6377
   5775.72  12.6854
   5783.73  12.7333
   5791.75  12.7814
   5799.79  12.8297
   5807.83  12.8781
   5815.89  12.9267
   5823.96  12.9755
   5832.04  13.0245
   5840.13  13.0737
   5848.23  13.1230
   5856.34  13.1726
   5864.47  13.2224
   5872.60  13.2723
   5880.75  13.3224
   5888.91  13.3727
   5897.08  13.4232
   5905.26  13.4739
   5913.45  13.5248
   5921.65  13.5758
   5929.87  13.6271
   5938.09  13.6786
   5946.33  13.7302
   5954.58  13.7821
   5962.84  13.8341
   5971.11  13.8864
   5979.40  13.9389
   5987.69  13.9915
   5996.00  14.0444
   6004.32  14.0974
   6012.65  14.1506
   6020.99  14.2041
   6029.34  14.2577
   6037.70  14.3116
   6046.08  14.3656
   6054.47  14.4199
   6062.87  14.4743
   6071.28  14.5290
   6079.70  14.5839
   6088.13  14.6389
   6096.58  14.6942
   6105.04  14.7497
   6113.51  14.8054
   6121.99  14.8613
   6130.48  14.9174
   6138.98  14.9738
   6147.50  15.0303
   6156.03  15.0871
   6164.57  15.1441
   6173.12  15.2013
   6181.68  15.2588
   6190.26  15.3164
   6198.85  15.3743
   6207.45  15.4323
   6216.06  15.4906
   6224.68  15.5491
   6233.32  15.6079
   6241.96  15.6668
   6250.62  15.7260
   6259.29  15.7854
   6267.98  15.8450
   6276.67  15.9049
   6285.38  15.9650
   6294.10  16.0253
   6302.83  16.0858
   6311.57  16.1466
   6320.33  16.2076
   6329.10  16.2688
   6337.88  16.3302
   6346.67  16.3919
   6355.48  16.4539
   6364.29  16.5160
   6373.12  16.5784
   6381.96  16.6411
   6390.82  16.7039
   6399.68  16.7671
   6408.56  16.8304
   6417.45  16.8940
   6426.35  16.9578
   6435.27  17.0219
   6444.19  17.0862
   6453.13  17.1508
   6462.09  17.2155
   6471.05  17.2806
   6480.03  17.3459
   6489.02  17.4114
   6498.02  17.4772
   6507.03  17.5432
   6516.06  17.6095
   6525.10  17.6760
   6534.15  17.7428
   6543.22  17.8100
   6552.29  17.8775
   6561.38  17.9452
   6570.49  18.0132
   6579.60  18.0814
   6588.73  18.1499
   6597.87  18.2187
   6607.02  18.2877
   6616.19  18.3569
   6625.37  18.4265
   6634.56  18.4963
   6643.76  18.5663
   6652.98  18.6367
   6662.21  18.7072
   6671.45  18.7781
   6680.70  18.8492
   6689.97  18.9206
   6699.25  18.9923
   6708.55  19.0642
   6717.85  19.1365
   6727.17  19.2090
   6736.50  19.2817
   6745.85  19.3547
   6755.21  19.4280
   6764.58  19.5017
   6773.96  19.5756
   6783.36  19.6497
   6792.77  19.7241
   6802.19  19.7989
   6811.63  19.8738
   6821.08  19.9491
   6830.54  20.0247
   6840.02  20.1006
   6849.51  20.1767
   6859.01  20.2531
   6868.52  20.3299
   6878.05  20.4069
   6887.59  20.4842
   6897.15  20.5618
   6906.72  20.6397
   6916.30  20.7179
   6925.89  20.7964
   6935.50  20.8752
   6945.12  20.9542
   6954.76  21.0336
   6964.40  21.1133
   6974.07  21.1933
   6983.74  21.2736
   6993.43  21.3542
   7003.13  21.4351
   7012.85  21.5163
   7022.57  21.5978
   7032.32  21.6796
   7042.07  21.7618
   7051.84  21.8442
   7061.62  21.9270
   7071.42  22.0100
   7081.23  22.0934
   7091.05  22.1771
   7100.89  22.2611
   7110.74  22.3455
   7120.61  22.4302
   7130.48  22.5151
   7140.38  22.6005
   7150.28  22.6861
   7160.20  22.7720
   7170.13  22.8583
   7180.08  22.9449
   7190.04  23.0318
   7200.02  23.1191
   7210.00  23.2067
   7220.01  23.2946
   7230.02  23.3829
   7240.05  23.4715
   7250.10  23.5604
   7260.15  23.6497
   7270.23  23.7393
   7280.31  23.8292
   7290.41  23.9195
   7300.52  24.0101
   7310.65  24.1011
   7320.79  24.1924
   7330.95  24.2841
   7341.12  24.3761
   7351.30  24.4684
   7361.50  24.5612
   7371.71  24.6542
   7381.94  24.7476
   7392.18  24.8414
   7402.44  24.9354
   7412.70  25.0299
   7422.99  25.1248
   7433.29  25.2199
   7443.60  25.3155
   7453.92  25.4115
   7464.26  25.5077
   7474.62  25.6044
   7484.99  25.7014
   7495.37  25.7988
   7505.77  25.8966
   7516.18  25.9947
   7526.61  26.0932
   7537.05  26.1921
   7547.51  26.2913
   7557.98  26.3909
   7568.46  26.4909
   7578.96  26.5913
   7589.47  26.6920
   7600.00  26.7931
   7610.55  26.8947
   7621.10  26.9966
   7631.68  27.0988
   7642.26  27.2015
   7652.87  27.3046
   7663.48  27.4080
   7674.11  27.5119
   7684.76  27.6161
   7695.42  27.7208
   7706.10  27.8259
   7716.79  27.9313
   7727.49  28.0371
   7738.21  28.1434
   7748.95  28.2500
   7759.70  28.3571
   7770.46  28.4645
   7781.24  28.5723
   7792.03  28.6806
   7802.84  28.7893
   7813.67  28.8984
   7824.51  29.0079
   7835.36  29.1178
   7846.23  29.2281
   7857.12  29.3389
   7868.02  29.4500
   7878.93  29.5617
   7889.86  29.6737
   7900.81  29.7861
   7911.77  29.8990
   7922.74  30.0122
   7933.73  30.1259
   7944.74  30.2401
   7955.76  30.3546
   7966.80  30.4696
   7977.85  30.5851
   7988.92  30.7009
   8000.00  30.8173
   8011.10  30.9340
   8022.21  31.0512
   8033.34  31.1688
   8044.48  31.2869
   8055.64  31.4080
   8066.82  31.5312
   8078.01  31.6548
   8089.22  31.7789
   8100.44  31.9035
   8111.68  32.0286
   8122.93  32.1542
   8134.20  32.2803
   8145.48  32.4068
   8156.78  32.5339
   8168.10  32.6614
   8179.43  32.7897
   8190.78  32.9229
   8202.14  33.0566
   8213.52  33.1910
   8224.91  33.3258
   8236.32  33.4612
   8247.75  33.5972
   8259.19  33.7337
   8270.65  33.8707
   8282.12  34.0083
   8293.61  34.1464
   8305.11  34.2852
   8316.64  34.4245
   8328.17  34.5643
   8339.73  34.7048
   8351.30  34.8458
   8362.88  34.9873
   8374.48  35.1295
   8386.10  35.2722
   8397.73  35.4155
   8409.38  35.5594
   8421.05  35.7038
   8432.73  35.8489
   8444.43  35.9946
   8456.14  36.1408
   8467.87  36.2877
   8479.62  36.4352
   8491.39  36.5832
   8503.17  36.7319
   8514.96  36.8812
   8526.77  37.0310
   8538.60  37.1815
   8550.45  37.3325
   8562.31  37.4843
   8574.19  37.6366
   8586.08  37.7895
   8597.99  37.9431
   8609.92  38.0973
   8621.87  38.2520
   8633.83  38.4075
   8645.80  38.5635
   8657.80  38.7202
   8669.81  38.8775
   8681.83  39.0354
   8693.88  39.1941
   8705.94  39.3533
   8718.02  39.5132
   8730.11  39.6738
   8742.22  39.8350
   8754.35  39.9968
   8766.49  40.1594
   8778.66  40.3225
   8790.83  40.4864
   8803.03  40.6509
   8815.24  40.8160
   8827.47  40.9819
   8839.72  41.1484
   8851.98  41.3156
   8864.26  41.4834
   8876.56  41.6520
   8888.87  41.8213
   8901.20  41.9912
   8913.55  42.1618
   8925.92  42.3332
   8938.30  42.5052
   8950.70  42.6779
   8963.11  42.8513
   8975.55  43.0255
   8988.00  43.2002
   9000.47  43.3758
   9012.95  43.5521
   9025.46  43.7291
   9037.98  43.9068
   9050.52  44.0852
   9063.07  44.2644
   9075.64  44.4444
   9088.23  44.6249
   9100.84  44.8063
   9113.47  44.9885
   9126.11  45.1712
   9138.77  45.3548
   9151.45  45.5392
   9164.14  45.7242
   9176.86  45.9100
   9189.59  46.0965
   9202.33  46.2839
   9215.10  46.4720
   9227.88  46.6608
   9240.69  46.8504
   9253.51  47.0408
   9266.34  47.2319
   9279.20  47.4238
   9292.07  47.6166
   9304.96  47.8100
   9317.87  48.0044
   9330.79  48.1994
   9343.74  48.3954
   9356.70  48.5921
   9369.68  48.7895
   9382.68  48.9879
   9395.70  49.1870
   9408.73  49.3868
   9421.78  49.5876
   9434.85  49.7890
   9447.94  49.9914
   9461.05  50.1946
   9474.17  50.3985
   9487.32  50.6034
   9500.48  50.8090
   9513.66  51.0154
   9526.85  51.2227
   9540.07  51.4309
   9553.31  51.6398
   9566.56  51.8497
   9579.83  52.0604
   9593.12  52.2718
   9606.43  52.4843
   9619.75  52.6975
   9633.10  52.9117
   9646.46  53.1268
   9659.84  53.3427
   9673.25  53.5595
   9686.67  53.7772
   9700.10  53.9957
   9713.56  54.2151
   9727.03  54.4354
   9740.53  54.6566
   9754.04  54.8788
   9767.57  55.0987
   9781.12  55.3185
   9794.69  55.5391
   9808.28  55.7605
   9821.89  55.9829
   9835.51  56.2061
   9849.16  56.4302
   9862.82  56.6552
   9876.50  56.8811
   9890.20  57.1079
   9903.92  57.3356
   9917.66  57.5634
   9931.42  57.7880
   9945.20  58.0135
   9958.99  58.2397
   9972.81  58.4670
   9986.64  58.6951
   10000.5  58.9240
   10014.4  59.1539
   10028.3  59.3846
   10042.2  59.6163
   10056.1  59.8489
   10070.1  60.0823
   10084.0  60.3167
   10098.0  60.5520
   10112.0  60.7882
   10126.1  61.0253
   10140.1  61.2634
   10154.2  61.5023
   10168.3  61.7423
   10182.4  61.9830
   10196.5  62.2248
   10210.6  62.4676
   10224.8  62.7112
   10239.0  62.9558
   10253.2  63.2015
   10267.4  63.4480
   10281.7  63.6956
   10295.9  63.9441
   10310.2  64.1936
   10324.5  64.4441
   10338.8  64.6954
   10353.2  64.9479
   10367.5  65.2013
   10381.9  65.4556
   10396.3  65.7110
   10410.7  65.9674
   10425.2  66.2247
   10439.6  66.4831
   10454.1  66.7425
   10468.6  67.0029
   10483.1  67.2644
   10497.7  67.5268
   10512.3  67.7903
   10526.8  68.0548
   10541.4  68.3202
   10556.1  68.5868
   10570.7  68.8544
   10585.4  69.1230
   10600.1  69.3929
   10614.8  69.6636
   10629.5  69.9355
   10644.2  70.2085
   10659.0  70.4824
   10673.8  70.7574
   10688.6  71.0336
   10703.4  71.3107
   10718.3  71.5890
   10733.1  71.8684
   10748.0  72.1487
   10762.9  72.4303
   10777.9  72.7128
   10792.8  72.9966
   10807.8  73.2815
   10822.8  73.5673
   10837.8  73.8544
   10852.8  74.1426
   10867.9  74.4318
   10883.0  74.7222
   10898.1  75.0138
   10913.2  75.3064
   10928.3  75.6003
   10943.5  75.8952
   10958.7  76.1914
   10973.9  76.4888
   10989.1  76.7872
   11004.3  77.0869
   11019.6  77.3878
   11034.9  77.6896
   11050.2  77.9928
   11065.5  78.2972
   11080.9  78.6026
   11096.2  78.9094
   11111.6  79.2172
   11127.1  79.5265
   11142.5  79.8369
   11157.9  80.1483
   11173.4  80.4612
   11188.9  80.7752
   11204.5  81.0903
   11220.0  81.4068
   11235.6  81.7243
   11251.1  82.0433
   11266.8  82.3634
   11282.4  82.6848
   11298.0  83.0076
   11313.7  83.3316
   11329.4  83.6568
   11345.1  83.9833
   11360.9  84.3112
   11376.6  84.6401
   11392.4  84.9705
   11408.2  85.3021
   11424.0  85.6349
   11439.9  85.9691
   11455.8  86.3045
   11471.6  86.6413
   11487.6  86.9795
   11503.5  87.3188
   11519.5  87.6596
   11535.4  88.0017
   11551.4  88.3450
   11567.5  88.6897
   11583.5  89.0358
   11599.6  89.3831
   11615.7  89.7319
   11631.8  90.0818
   11647.9  90.4334
   11664.1  90.7864
   11680.3  91.1405
   11696.5  91.4963
   11712.7  91.8533
   11728.9  92.2117
   11745.2  92.5715
   11761.5  92.9326
   11777.8  93.2953
   11794.2  93.6593
   11810.5  94.0247
   11826.9  94.3915
   11843.3  94.7599
   11859.7  95.1297
   11876.2  95.5009
   11892.7  95.8737
   11909.2  96.2477
   11925.7  96.6233
   11942.2  97.0002
   11958.8  97.3788
   11975.4  97.7588
   11992.0  98.1401
   12008.6  98.5230
   12025.3  98.9075
   12042.0  99.2931
   12058.7  99.6805
   12075.4  100.069
   12092.2  100.460
   12108.9  100.851
   12125.7  101.245
   12142.6  101.640
   12159.4  102.036
   12176.3  102.434
   12193.2  102.833
   12210.1  103.234
   12227.0  103.637
   12244.0  104.041
   12261.0  104.448
   12278.0  104.855
   12295.0  105.264
   12312.1  105.675
   12329.1  106.087
   12346.2  106.501
   12363.4  106.916
   12380.5  107.334
   12397.7  107.752
   12414.9  108.173
   12432.1  108.595
   12449.4  109.018
   12466.6  109.443
   12483.9  109.870
   12501.2  110.298
   12518.6  110.729
   12536.0  111.160
   12553.3  111.594
   12570.8  112.029
   12588.2  112.466
   12605.7  112.904
   12623.1  113.345
   12640.7  113.787
   12658.2  114.230
   12675.8  114.676
   12693.3  115.123
   12711.0  115.572
   12728.6  116.023
   12746.2  116.475
   12763.9  116.929
   12781.6  117.385
   12799.4  117.843
   12817.1  118.302
   12834.9  118.764
   12852.7  119.227
   12870.5  119.691
   12888.4  120.158
   12906.3  120.626
   12924.2  121.097
   12942.1  121.568
   12960.1  122.042
   12978.0  122.518
   12996.0  122.995
   13014.1  123.475
   13032.1  123.956
   13050.2  124.439
   13068.3  124.925
   13086.4  125.412
   13104.6  125.901
   13122.8  126.392
   13141.0  126.884
   13159.2  127.379
   13177.5  127.876
   13195.7  128.374
   13214.0  128.875
   13232.4  129.377
   13250.7  129.881
   13269.1  130.387
   13287.5  130.895
   13306.0  131.406
   13324.4  131.918
   13342.9  132.432
   13361.4  132.948
   13379.9  133.466
   13398.5  133.986
   13417.1  134.508
   13435.7  135.032
   13454.3  135.558
   13473.0  136.087
   13491.7  136.617
   13510.4  137.149
   13529.2  137.684
   13547.9  138.220
   13566.7  138.759
   13585.5  139.299
   13604.4  139.842
   13623.3  140.387
   13642.2  140.934
   13661.1  141.483
   13680.0  142.034
   13699.0  142.587
   13718.0  143.143
   13737.0  143.701
   13756.1  144.260
   13775.2  144.822
   13794.3  145.386
   13813.4  145.952
   13832.6  146.521
   13851.8  147.091
   13871.0  147.664
   13890.2  148.239
   13909.5  148.816
   13928.8  149.396
   13948.1  149.978
   13967.5  150.562
   13986.9  151.148
   14006.3  151.737
   14025.7  152.328
   14045.1  152.921
   14064.6  153.516
   14084.1  154.114
   14103.7  154.714
   14123.2  155.316
   14142.8  155.921
   14162.5  156.528
   14182.1  157.137
   14201.8  157.749
   14221.5  158.363
   14241.2  158.980
   14261.0  159.599
   14280.8  160.219
   14300.6  160.843
   14320.4  161.469
   14340.3  162.097
   14360.2  162.728
   14380.1  163.362
   14400.0  163.998
   14420.0  164.636
   14440.0  165.277
   14460.0  165.920
   14480.1  166.566
   14500.2  167.214
   14520.3  167.865
   14540.5  168.518
   14560.6  169.174
   14580.8  169.832
   14601.0  170.493
   14621.3  171.156
   14641.6  171.822
   14661.9  172.490
   14682.2  173.161
   14702.6  173.834
   14723.0  174.510
   14743.4  175.189
   14763.9  175.870
   14784.4  176.554
   14804.9  177.240
   14825.4  177.930
   14846.0  178.621
   14866.6  179.316
   14887.2  180.014
   14907.8  180.714
   14928.5  181.417
   14949.2  182.122
   14970.0  182.830
   14990.7  183.541
   15011.5  184.255
   15032.4  184.971
   15053.2  185.690
   15074.1  186.413
   15095.0  187.138
   15116.0  187.865
   15136.9  188.596
   15157.9  189.329
   15178.9  190.065
   15200.0  190.804
   15221.1  191.546
   15242.2  192.291
   15263.4  193.038
   15284.5  193.789
   15305.7  194.542
   15327.0  195.299
   15348.2  196.058
   15369.5  196.820
   15390.8  197.585
   15412.2  198.353
   15433.6  199.124
   15455.0  199.898
   15476.4  200.675
   15497.9  201.455
   15519.4  202.237
   15540.9  203.023
   15562.5  203.812
   15584.1  204.604
   15605.7  205.400
   15627.3  206.198
   15649.0  206.999
   15670.7  207.803
   15692.5  208.611
   15714.2  209.421
   15736.0  210.234
   15757.9  211.051
   15779.7  211.871
   15801.6  212.694
   15823.5  213.520
   15845.5  214.349
   15867.5  215.182
   15889.5  216.017
   15911.5  216.856
   15933.6  217.698
   15955.7  218.543
   15977.8  219.392
   16000.0  220.243
   16020.1  221.019
   16040.3  221.796
   16060.5  222.577
   16080.7  223.361
   16100.9  224.147
   16121.1  224.935
   16141.4  225.727
   16161.7  226.521
   16182.1  227.318
   16202.4  228.118
   16222.8  228.921
   16243.2  229.726
   16263.6  230.534
   16284.1  231.345
   16304.6  232.159
   16325.1  232.975
   16345.6  233.795
   16366.2  234.618
   16386.8  235.443
   16407.4  236.271
   16428.1  237.102
   16448.7  237.937
   16469.4  238.774
   16490.1  239.613
   16510.9  240.456
   16531.6  241.302
   16552.4  242.150
   16573.3  243.002
   16594.1  243.856
   16615.0  244.714
   16635.9  245.574
   16656.8  246.438
   16677.8  247.304
   16698.8  248.173
   16719.8  249.046
   16740.8  249.921
   16761.9  250.799
   16782.9  251.681
   16804.1  252.566
   16825.2  253.453
   16846.4  254.344
   16867.6  255.237
   16888.8  256.134
   16910.0  257.034
   16931.3  257.937
   16952.6  258.844
   16973.9  259.753
   16995.3  260.665
   17016.7  261.581
   17038.1  262.500
   17059.5  45.6645
   17081.0  45.8090
   17102.4  45.9541
   17124.0  46.0995
   17145.5  46.2453
   17167.1  46.3917
   17188.7  46.5385
   17210.3  46.6857
   17231.9  46.8334
   17253.6  46.9816
   17275.3  47.1302
   17297.1  47.2793
   17318.8  47.4290
   17340.6  47.5790
   17362.4  47.7295
   17384.3  47.8805
   17406.1  48.0326
   17428.0  48.1853
   17449.9  48.3384
   17471.9  48.4920
   17493.9  48.6461
   17515.9  48.8006
   17537.9  48.9557
   17560.0  49.1113
   17582.1  49.2673
   17604.2  49.4238
   17626.3  49.5809
   17648.5  49.7384
   17670.7  49.8965
   17692.9  50.0558
   17715.2  50.2156
   17737.5  50.3759
   17759.8  50.5367
   17782.1  50.6980
   17804.5  50.8599
   17826.9  51.0222
   17849.3  51.1850
   17871.8  51.3484
   17894.3  51.5123
   17916.8  51.6767
   17939.3  51.8417
   17961.9  52.0074
   17984.5  52.1740
   18007.1  52.3413
   18029.8  52.5090
   18052.5  52.6772
   18075.2  52.8460
   18097.9  53.0154
   18120.7  53.1853
   18143.5  53.3557
   18166.3  53.5266
   18189.1  53.6982
   18212.0  53.8702
   18234.9  54.0428
   18257.9  54.2165
   18280.8  54.3909
   18303.8  54.5659
   18326.9  54.7415
   18349.9  54.9176
   18373.0  55.0943
   18396.1  55.2715
   18419.3  55.4494
   18442.4  55.6278
   18465.6  55.8067
   18488.9  55.9863
   18512.1  56.1664
   18535.4  56.3471
   18558.7  56.5290
   18582.1  56.7117
   18605.5  56.8948
   18628.9  57.0786
   18652.3  57.2629
   18675.8  57.4480
   18699.3  57.6335
   18722.8  57.8196
   18746.3  58.0065
   18769.9  58.1938
   18793.5  58.3817
   18817.2  58.5703
   18840.8  58.7595
   18864.5  58.9500
   18888.3  59.1411
   18912.0  59.3329
   18935.8  59.5252
   18959.7  59.7182
   18983.5  59.9118
   19007.4  60.1060
   19031.3  60.3008
   19055.2  60.4963
   19079.2  60.6924
   19103.2  60.8891
   19127.2  61.0865
   19151.3  61.2848
   19175.4  61.4841
   19199.5  61.6841
   19223.7  61.8848
   19247.9  62.0862
   19272.1  62.2881
   19296.3  62.4907
   19320.6  62.6941
   19344.9  62.8980
   19369.2  63.1026
   19393.6  63.3078
   19418.0  63.5138
   19442.4  63.7204
   19466.9  63.9280
   19491.4  64.1368
   19515.9  64.3461
   19540.4  64.5561
   19565.0  64.7668
   19589.6  64.9783
   19614.3  65.1903
   19639.0  65.4031
   19663.7  65.6166
   19688.4  65.8307
   19713.2  66.0456
   19738.0  66.2612
   19762.8  66.4774
   19787.7  66.6950
   19812.6  66.9134
   19837.5  67.1327
   19862.4  67.3526
   19887.4  67.5732
   19912.4  67.7946
   19937.5  68.0166
   19962.6  68.2394
   19987.7  68.4629
   20012.8  68.6872
   20038.0  68.9122
   20063.2  69.1378
   20088.5  69.3644
   20113.7  69.5923
   20139.0  69.8210
   20164.4  70.0504
   20189.7  70.2806
   20215.1  70.5115
   20240.6  70.7431
   20266.0  70.9757
   20291.5  71.2088
   20317.0  71.4427
   20342.6  71.6774
   20368.2  71.9130
   20393.8  72.1492
   20419.5  72.3865
   20445.2  72.6252
   20470.9  72.8646
   20496.6  73.1047
   20522.4  73.3457
   20548.2  73.5875
   20574.1  73.8300
   20600.0  74.0734
   20625.9  74.3176
   20651.8  74.5625
   20677.8  74.8082
   20703.8  75.0548
   20729.9  75.3022
   20755.9  75.5508
   20782.1  75.8005
   20808.2  76.0512
   20834.4  76.3026
   20860.6  76.5548
   20886.8  76.8078
   20913.1  77.0618
   20939.4  77.3165
   20965.8  77.5720
   20992.1  77.8285
   21018.5  78.0857
   21045.0  78.3438
   21071.5  78.6027
   21098.0  78.8632
   21124.5  79.1246
   21151.1  79.3869
   21177.7  79.6502
   21204.3  79.9142
   21231.0  80.1791
   21257.7  80.4450
   21284.5  80.7116
   21311.2  80.9791
   21338.0  81.2475
   21364.9  81.5169
   21391.8  81.7871
   21418.7  82.0581
   21445.6  82.3310
   21472.6  82.6046
   21499.6  82.8791
   21526.7  83.1545
   21553.7  83.4310
   21580.9  83.7083
   21608.0  83.9865
   21635.2  84.2656
   21662.4  84.5457
   21689.7  84.8266
   21716.9  85.1085
   21744.3  85.3914
   21771.6  85.6754
   21799.0  85.9609
   21826.4  86.2476
   21853.9  86.5350
   21881.4  86.8234
   21908.9  87.1128
   21936.5  87.4032
   21964.1  87.6945
   21991.7  87.9867
   22019.4  88.2801
   22047.1  88.5742
   22074.8  88.8694
   22102.6  89.1655
   22130.4  89.4631
   22158.2  89.7621
   22186.1  90.0620
   22214.0  90.3630
   22241.9  90.6649
   22269.9  90.9678
   22297.9  91.2717
   22326.0  91.5768
   22354.1  91.8827
   22382.2  92.1896
   22410.4  92.4977
   22438.5  92.8067
   22466.8  93.1167
   22495.0  93.4283
   22523.3  93.7414
   22551.7  94.0554
   22580.0  94.3704
   22608.4  94.6867
   22636.9  95.0038
   22665.4  95.3219
   22693.9  95.6412
   22722.4  95.9616
   22751.0  96.2830
   22779.6  96.6054
   22808.3  96.9291
   22837.0  97.2536
   22865.7  97.5801
   22894.5  97.9078
   22923.3  98.2365
   22952.1  98.5663
   22981.0  98.8972
   23009.9  99.2293
   23038.8  99.5624
   23067.8  99.8966
   23096.8  100.232
   23125.9  100.568
   23155.0  100.906
   23184.1  101.245
   23213.3  101.585
   23242.5  101.927
   23271.7  102.270
   23301.0  102.614
   23330.3  102.959
   23359.7  103.305
   23389.1  103.653
   23418.5  104.002
   23447.9  104.352
   23477.4  104.703
   23507.0  105.055
   23536.5  105.409
   23566.2  105.763
   23595.8  106.119
   23625.5  106.477
   23655.2  106.837
   23685.0  107.197
   23714.8  107.558
   23744.6  107.921
   23774.5  108.285
   23804.4  108.650
   23834.3  109.017
   23864.3  109.384
   23894.3  109.753
   23924.4  110.123
   23954.5  110.495
   23984.6  110.868
   24014.8  111.242
   24045.0  111.618
   24075.3  111.996
   24105.5  112.374
   24135.9  112.754
   24166.2  113.135
   24196.6  113.517
   24227.1  113.901
   24257.5  114.286
   24288.1  114.672
   24318.6  115.059
   24349.2  115.448
   24379.8  115.839
   24410.5  116.231
   24441.2  116.625
   24472.0  117.020
   24502.8  117.416
   24533.6  117.813
   24564.4  118.212
   24595.3  118.613
   24626.3  119.014
   24657.3  119.417
   24688.3  119.822
   24719.3  120.227
   24750.4  120.634
   24781.6  121.044
   24812.7  121.454
   24844.0  121.866
   24875.2  122.280
   24906.5  122.695
   24937.8  123.111
   24969.2  123.529
   25000.6  123.948
   25032.1  124.368
   25063.6  124.790
   25095.1  125.213
   25126.7  125.638
   25158.3  126.064
   25189.9  126.493
   25221.6  126.923
   25253.3  127.355
   25285.1  127.788
   25316.9  128.222
   25348.8  128.658
   25380.7  129.095
   25412.6  129.534
   25444.6  129.974
   25476.6  130.416
   25508.6  130.859
   25540.7  131.304
   25572.8  131.751
   25605.0  132.199
   25637.2  132.650
   25669.5  133.101
   25701.8  133.555
   25734.1  134.009
   25766.5  134.466
   25798.9  134.924
   25831.3  135.383
   25863.8  135.844
   25896.4  136.306
   25929.0  136.770
   25961.6  137.236
   25994.2  137.704
   26026.9  138.174
   26059.7  138.645
   26092.5  139.118
   26125.3  139.593
   26158.1  140.069
   26191.1  140.547
   26224.0  141.026
   26257.0  141.507
   26290.0  141.990
   26323.1  142.474
   26356.2  142.960
   26389.4  143.447
   26422.6  143.937
   26455.8  144.429
   26489.1  144.923
   26522.4  145.418
   26555.8  145.915
   26589.2  146.413
   26622.6  146.913
   26656.1  147.415
   26689.7  147.919
   26723.2  148.424
   26756.9  148.931
   26790.5  149.440
   26824.2  149.951
   26858.0  150.464
   26891.7  150.979
   26925.6  151.495
   26959.5  152.014
   26993.4  152.534
   27027.3  153.056
   27061.3  153.580
   27095.4  154.105
   27129.5  154.632
   27163.6  155.162
   27197.8  155.692
   27232.0  156.225
   27266.2  156.760
   27300.5  157.297
   27334.9  157.836
   27369.3  158.377
   27403.7  158.920
   27438.2  159.464
   27472.7  160.010
   27507.2  160.559
   27541.8  161.109
   27576.5  161.661
   27611.2  162.214
   27645.9  162.770
   27680.7  163.328
   27715.5  163.888
   27750.4  164.451
   27785.3  165.015
   27820.3  165.581
   27855.3  166.150
   27890.3  166.720
   27925.4  167.292
   27960.5  167.866
   27995.7  168.442
   28030.9  169.020
   28066.2  169.600
   28101.5  170.182
   28136.8  170.766
   28172.2  171.353
   28207.7  171.941
   28243.2  172.533
   28278.7  173.125
   28314.3  173.720
   28349.9  174.317
   28385.5  174.916
   28421.2  175.517
   28457.0  176.119
   28492.8  176.725
   28528.6  177.332
   28564.5  177.941
   28600.5  178.552
   28636.4  179.167
   28672.5  179.783
   28708.5  180.402
   28744.7  181.023
   28780.8  181.646
   28817.0  182.271
   28853.3  182.898
   28889.6  183.527
   28925.9  184.159
   28962.3  184.792
   28998.7  185.428
   29035.2  186.066
   29071.8  186.706
   29108.3  187.349
   29144.9  187.995
   29181.6  188.643
   29218.3  189.292
   29255.1  189.945
   29291.9  190.599
   29328.7  191.255
   29365.6  191.914
   29402.6  192.575
   29439.6  193.238
   29476.6  193.903
   29513.7  194.571
   29550.8  195.242
   29588.0  195.915
   29625.2  196.591
   29662.5  197.269
   29699.8  197.949
   29737.1  198.631
   29774.6  199.316
   29812.0  200.004
   29849.5  200.693
   29887.1  201.385
   29924.7  202.079
   29962.3  202.776
   30000.0  203.475
